15 	40
15.02 	44
15.04 	52
15.06 	43
15.08 	60
15.1 	46
15.12 	56
15.14 	51
15.16 	36
15.18 	48
15.2 	51
15.22 	45
15.24 	41
15.26 	42
15.28 	40
15.3 	37
15.32 	50
15.34 	44
15.36 	37
15.38 	45
15.4 	39
15.42 	58
15.44 	46
15.46 	41
15.48 	48
15.5 	46
15.52 	40
15.54 	48
15.56 	46
15.58 	48
15.6 	59
15.62 	47
15.64 	56
15.66 	52
15.68 	34
15.7 	49
15.72 	44
15.74 	49
15.76 	43
15.78 	36
15.8 	59
15.82 	44
15.84 	60
15.86 	47
15.88 	56
15.9 	57
15.92 	37
15.94 	46
15.96 	49
15.98 	50
16 	39
16.02 	35
16.04 	42
16.06 	48
16.08 	52
16.1 	46
16.12 	62
16.14 	35
16.16 	48
16.18 	62
16.2 	49
16.22 	58
16.24 	64
16.26 	48
16.28 	56
16.3 	57
16.32 	60
16.34 	45
16.36 	56
16.38 	69
16.4 	62
16.42 	60
16.44 	51
16.46 	71
16.48 	64
16.5 	63
16.52 	63
16.54 	55
16.56 	62
16.58 	69
16.6 	58
16.62 	58
16.64 	65
16.66 	54
16.68 	66
16.7 	58
16.72 	54
16.74 	65
16.76 	55
16.78 	45
16.8 	56
16.82 	56
16.84 	60
16.86 	50
16.88 	54
16.9 	65
16.92 	54
16.94 	49
16.96 	62
16.98 	52
17 	61
17.02 	46
17.04 	51
17.06 	56
17.08 	55
17.1 	55
17.12 	49
17.14 	60
17.16 	36
17.18 	47
17.2 	52
17.22 	43
17.24 	39
17.26 	47
17.28 	34
17.3 	40
17.32 	31
17.34 	40
17.36 	44
17.38 	38
17.4 	44
17.42 	45
17.44 	39
17.46 	31
17.48 	35
17.5 	33
17.52 	20
17.54 	37
17.56 	31
17.58 	29
17.6 	29
17.62 	36
17.64 	34
17.66 	19
17.68 	32
17.7 	32
17.72 	21
17.74 	37
17.76 	28
17.78 	28
17.8 	27
17.82 	23
17.84 	26
17.86 	23
17.88 	23
17.9 	27
17.92 	22
17.94 	18
17.96 	40
17.98 	34
18 	21
18.02 	26
18.04 	24
18.06 	24
18.08 	26
18.1 	29
18.12 	24
18.14 	28
18.16 	26
18.18 	27
18.2 	20
18.22 	25
18.24 	21
18.26 	31
18.28 	32
18.3 	32
18.32 	23
18.34 	21
18.36 	25
18.38 	28
18.4 	39
18.42 	16
18.44 	26
18.46 	25
18.48 	20
18.5 	20
18.52 	26
18.54 	25
18.56 	21
18.58 	22
18.6 	28
18.62 	28
18.64 	24
18.66 	15
18.68 	18
18.7 	20
18.72 	20
18.74 	18
18.76 	29
18.78 	15
18.8 	21
18.82 	27
18.84 	17
18.86 	18
18.88 	25
18.9 	20
18.92 	29
18.94 	26
18.96 	18
18.98 	20
19 	20
19.02 	25
19.04 	20
19.06 	20
19.08 	21
19.1 	17
19.12 	17
19.14 	24
19.16 	30
19.18 	26
19.2 	23
19.22 	28
19.24 	25
19.26 	17
19.28 	19
19.3 	26
19.32 	29
19.34 	35
19.36 	26
19.38 	24
19.4 	24
19.42 	21
19.44 	23
19.46 	25
19.48 	23
19.5 	16
19.52 	20
19.54 	27
19.56 	22
19.58 	28
19.6 	30
19.62 	18
19.64 	19
19.66 	23
19.68 	35
19.7 	16
19.72 	25
19.74 	24
19.76 	29
19.78 	18
19.8 	19
19.82 	28
19.84 	23
19.86 	31
19.88 	31
19.9 	35
19.92 	22
19.94 	32
19.96 	24
19.98 	24
20 	28
20.02 	20
20.04 	26
20.06 	25
20.08 	32
20.1 	22
20.12 	24
20.14 	27
20.16 	25
20.18 	25
20.2 	22
20.22 	34
20.24 	21
20.26 	26
20.28 	22
20.3 	22
20.32 	26
20.34 	25
20.36 	19
20.38 	24
20.4 	26
20.42 	25
20.44 	16
20.46 	22
20.48 	29
20.5 	30
20.52 	18
20.54 	23
20.56 	24
20.58 	32
20.6 	19
20.62 	21
20.64 	33
20.66 	33
20.68 	26
20.7 	37
20.72 	27
20.74 	22
20.76 	26
20.78 	28
20.8 	23
20.82 	23
20.84 	21
20.86 	29
20.88 	35
20.9 	22
20.92 	26
20.94 	26
20.96 	32
20.98 	22
21 	24
21.02 	24
21.04 	25
21.06 	23
21.08 	29
21.1 	24
21.12 	29
21.14 	26
21.16 	33
21.18 	34
21.2 	26
21.22 	21
21.24 	24
21.26 	21
21.28 	28
21.3 	25
21.32 	29
21.34 	28
21.36 	32
21.38 	29
21.4 	26
21.42 	33
21.44 	24
21.46 	24
21.48 	22
21.5 	29
21.52 	26
21.54 	25
21.56 	19
21.58 	26
21.6 	33
21.62 	31
21.64 	22
21.66 	27
21.68 	32
21.7 	27
21.72 	27
21.74 	27
21.76 	26
21.78 	30
21.8 	28
21.82 	29
21.84 	25
21.86 	31
21.88 	28
21.9 	37
21.92 	28
21.94 	29
21.96 	25
21.98 	33
22 	32
22.02 	27
22.04 	30
22.06 	32
22.08 	36
22.1 	40
22.12 	31
22.14 	34
22.16 	28
22.18 	28
22.2 	30
22.22 	26
22.24 	29
22.26 	28
22.28 	30
22.3 	25
22.32 	22
22.34 	34
22.36 	33
22.38 	28
22.4 	27
22.42 	24
22.44 	27
22.46 	24
22.48 	24
22.5 	30
22.52 	29
22.54 	23
22.56 	34
22.58 	38
22.6 	38
22.62 	31
22.64 	34
22.66 	30
22.68 	36
22.7 	28
22.72 	32
22.74 	22
22.76 	25
22.78 	24
22.8 	24
22.82 	26
22.84 	20
22.86 	31
22.88 	22
22.9 	28
22.92 	23
22.94 	25
22.96 	28
22.98 	21
23 	17
23.02 	24
23.04 	22
23.06 	21
23.08 	22
23.1 	33
23.12 	24
23.14 	22
23.16 	29
23.18 	22
23.2 	26
23.22 	26
23.24 	23
23.26 	34
23.28 	21
23.3 	25
23.32 	26
23.34 	14
23.36 	25
23.38 	22
23.4 	21
23.42 	26
23.44 	32
23.46 	22
23.48 	15
23.5 	32
23.52 	31
23.54 	22
23.56 	22
23.58 	35
23.6 	23
23.62 	25
23.64 	21
23.66 	22
23.68 	26
23.7 	31
23.72 	22
23.74 	22
23.76 	24
23.78 	29
23.8 	21
23.82 	27
23.84 	26
23.86 	15
23.88 	22
23.9 	23
23.92 	13
23.94 	26
23.96 	19
23.98 	21
24 	28
24.02 	27
24.04 	28
24.06 	29
24.08 	20
24.1 	16
24.12 	21
24.14 	13
24.16 	25
24.18 	19
24.2 	31
24.22 	21
24.24 	25
24.26 	22
24.28 	24
24.3 	28
24.32 	24
24.34 	22
24.36 	34
24.38 	19
24.4 	22
24.42 	18
24.44 	19
24.46 	12
24.48 	22
24.5 	21
24.52 	24
24.54 	22
24.56 	33
24.58 	23
24.6 	17
24.62 	22
24.64 	21
24.66 	25
24.68 	13
24.7 	18
24.72 	19
24.74 	25
24.76 	20
24.78 	19
24.8 	22
24.82 	20
24.84 	24
24.86 	17
24.88 	24
24.9 	22
24.92 	19
24.94 	23
24.96 	30
24.98 	26
25 	20
25.02 	20
25.04 	20
25.06 	21
25.08 	28
25.1 	17
25.12 	26
25.14 	17
25.16 	23
25.18 	25
25.2 	19
25.22 	20
25.24 	16
25.26 	28
25.28 	24
25.3 	27
25.32 	27
25.34 	17
25.36 	17
25.38 	19
25.4 	21
25.42 	18
25.44 	20
25.46 	25
25.48 	24
25.5 	25
25.52 	24
25.54 	23
25.56 	26
25.58 	21
25.6 	18
25.62 	19
25.64 	25
25.66 	28
25.68 	23
25.7 	20
25.72 	24
25.74 	21
25.76 	18
25.78 	16
25.8 	23
25.82 	18
25.84 	18
25.86 	17
25.88 	18
25.9 	18
25.92 	23
25.94 	18
25.96 	20
25.98 	10
26 	18
26.02 	23
26.04 	18
26.06 	19
26.08 	19
26.1 	15
26.12 	13
26.14 	19
26.16 	14
26.18 	21
26.2 	21
26.22 	18
26.24 	26
26.26 	28
26.28 	16
26.3 	13
26.32 	20
26.34 	7
26.36 	16
26.38 	18
26.4 	15
26.42 	18
26.44 	28
26.46 	14
26.48 	17
26.5 	16
26.52 	22
26.54 	24
26.56 	23
26.58 	17
26.6 	24
26.62 	17
26.64 	20
26.66 	22
26.68 	21
26.7 	20
26.72 	17
26.74 	17
26.76 	24
26.78 	24
26.8 	20
26.82 	12
26.84 	18
26.86 	19
26.88 	21
26.9 	22
26.92 	27
26.94 	28
26.96 	19
26.98 	23
27 	17
27.02 	21
27.04 	20
27.06 	28
27.08 	16
27.1 	20
27.12 	20
27.14 	23
27.16 	12
27.18 	23
27.2 	16
27.22 	21
27.24 	11
27.26 	22
27.28 	14
27.3 	17
27.32 	21
27.34 	18
27.36 	23
27.38 	23
27.4 	14
27.42 	20
27.44 	15
27.46 	25
27.48 	27
27.5 	21
27.52 	26
27.54 	11
27.56 	16
27.58 	9
27.6 	24
27.62 	15
27.64 	19
27.66 	18
27.68 	29
27.7 	17
27.72 	13
27.74 	15
27.76 	10
27.78 	32
27.8 	18
27.82 	14
27.84 	11
27.86 	14
27.88 	21
27.9 	20
27.92 	20
27.94 	20
27.96 	17
27.98 	17
28 	14
28.02 	12
28.04 	19
28.06 	12
28.08 	19
28.1 	16
28.12 	26
28.14 	10
28.16 	18
28.18 	17
28.2 	23
28.22 	23
28.24 	23
28.26 	14
28.28 	15
28.3 	17
28.32 	16
28.34 	16
28.36 	14
28.38 	14
28.4 	16
28.42 	19
28.44 	20
28.46 	18
28.48 	11
28.5 	12
28.52 	20
28.54 	16
28.56 	23
28.58 	21
28.6 	16
28.62 	12
28.64 	19
28.66 	22
28.68 	19
28.7 	13
28.72 	11
28.74 	16
28.76 	12
28.78 	25
28.8 	15
28.82 	12
28.84 	14
28.86 	17
28.88 	14
28.9 	24
28.92 	27
28.94 	20
28.96 	23
28.98 	22
29 	26
29.02 	19
29.04 	12
29.06 	15
29.08 	16
29.1 	14
29.12 	20
29.14 	30
29.16 	20
29.18 	17
29.2 	23
29.22 	16
29.24 	19
29.26 	13
29.28 	17
29.3 	22
29.32 	18
29.34 	22
29.36 	22
29.38 	18
29.4 	22
29.42 	14
29.44 	15
29.46 	16
29.48 	29
29.5 	17
29.52 	22
29.54 	14
29.56 	19
29.58 	20
29.6 	21
29.62 	10
29.64 	19
29.66 	16
29.68 	14
29.7 	14
29.72 	23
29.74 	13
29.76 	15
29.78 	19
29.8 	16
29.82 	24
29.84 	17
29.86 	21
29.88 	18
29.9 	21
29.92 	16
29.94 	19
29.96 	28
29.98 	14
30 	11
30.02 	20
30.04 	17
30.06 	15
30.08 	23
30.1 	14
30.12 	16
30.14 	18
30.16 	13
30.18 	15
30.2 	17
30.22 	15
30.24 	13
30.26 	23
30.28 	26
30.3 	19
30.32 	14
30.34 	15
30.36 	14
30.38 	15
30.4 	17
30.42 	16
30.44 	14
30.46 	20
30.48 	20
30.5 	12
30.52 	18
30.54 	9
30.56 	17
30.58 	26
30.6 	10
30.62 	18
30.64 	23
30.66 	18
30.68 	21
30.7 	16
30.72 	19
30.74 	12
30.76 	15
30.78 	18
30.8 	21
30.82 	20
30.84 	18
30.86 	12
30.88 	19
30.9 	14
30.92 	17
30.94 	18
30.96 	14
30.98 	18
31 	18
31.02 	10
31.04 	15
31.06 	17
31.08 	17
31.1 	21
31.12 	16
31.14 	18
31.16 	15
31.18 	12
31.2 	18
31.22 	15
31.24 	12
31.26 	19
31.28 	19
31.3 	14
31.32 	17
31.34 	20
31.36 	18
31.38 	14
31.4 	15
31.42 	12
31.44 	16
31.46 	13
31.48 	12
31.5 	15
31.52 	21
31.54 	16
31.56 	20
31.58 	21
31.6 	17
31.62 	11
31.64 	10
31.66 	11
31.68 	19
31.7 	16
31.72 	16
31.74 	11
31.76 	19
31.78 	24
31.8 	16
31.82 	12
31.84 	15
31.86 	18
31.88 	17
31.9 	13
31.92 	10
31.94 	24
31.96 	19
31.98 	20
32 	10
32.02 	12
32.04 	18
32.06 	19
32.08 	26
32.1 	17
32.12 	20
32.14 	23
32.16 	18
32.18 	18
32.2 	20
32.22 	17
32.24 	20
32.26 	10
32.28 	13
32.3 	16
32.32 	13
32.34 	13
32.36 	11
32.38 	9
32.4 	13
32.42 	14
32.44 	12
32.46 	18
32.48 	16
32.5 	19
32.52 	12
32.54 	20
32.56 	10
32.58 	11
32.6 	10
32.62 	15
32.64 	18
32.66 	15
32.68 	13
32.7 	18
32.72 	21
32.74 	18
32.76 	8
32.78 	19
32.8 	11
32.82 	13
32.84 	20
32.86 	19
32.88 	10
32.9 	13
32.92 	7
32.94 	14
32.96 	8
32.98 	12
33 	17
33.02 	6
33.04 	20
33.06 	12
33.08 	16
33.1 	15
33.12 	18
33.14 	13
33.16 	13
33.18 	14
33.2 	11
33.22 	13
33.24 	16
33.26 	15
33.28 	13
33.3 	11
33.32 	9
33.34 	14
33.36 	22
33.38 	17
33.4 	14
33.42 	12
33.44 	16
33.46 	12
33.48 	20
33.5 	13
33.52 	11
33.54 	22
33.56 	11
33.58 	20
33.6 	16
33.62 	9
33.64 	18
33.66 	11
33.68 	16
33.7 	13
33.72 	13
33.74 	19
33.76 	14
33.78 	13
33.8 	8
33.82 	19
33.84 	18
33.86 	16
33.88 	15
33.9 	13
33.92 	19
33.94 	21
33.96 	13
33.98 	15
34 	14
34.02 	13
34.04 	17
34.06 	12
34.08 	22
34.1 	26
34.12 	17
34.14 	13
34.16 	15
34.18 	15
34.2 	15
34.22 	17
34.24 	10
34.26 	14
34.28 	15
34.3 	8
34.32 	10
34.34 	10
34.36 	15
34.38 	13
34.4 	17
34.42 	18
34.44 	14
34.46 	13
34.48 	17
34.5 	16
34.52 	13
34.54 	14
34.56 	12
34.58 	15
34.6 	11
34.62 	15
34.64 	16
34.66 	23
34.68 	19
34.7 	14
34.72 	14
34.74 	8
34.76 	16
34.78 	13
34.8 	17
34.82 	20
34.84 	16
34.86 	14
34.88 	17
34.9 	14
34.92 	23
34.94 	13
34.96 	17
34.98 	22
35 	11
35.02 	11
35.04 	20
35.06 	17
35.08 	18
35.1 	17
35.12 	26
35.14 	25
35.16 	19
35.18 	30
35.2 	23
35.22 	26
35.24 	24
35.26 	37
35.28 	34
35.3 	36
35.32 	44
35.34 	36
35.36 	52
35.38 	33
35.4 	54
35.42 	44
35.44 	35
35.46 	35
35.48 	46
35.5 	41
35.52 	37
35.54 	27
35.56 	25
35.58 	34
35.6 	25
35.62 	19
35.64 	21
35.66 	6
35.68 	11
35.7 	17
35.72 	25
35.74 	13
35.76 	26
35.78 	13
35.8 	14
35.82 	13
35.84 	18
35.86 	13
35.88 	14
35.9 	20
35.92 	15
35.94 	19
35.96 	22
35.98 	19
36 	15
36.02 	14
36.04 	23
36.06 	16
36.08 	13
36.1 	14
36.12 	21
36.14 	12
36.16 	15
36.18 	16
36.2 	11
36.22 	17
36.24 	16
36.26 	19
36.28 	22
36.3 	12
36.32 	16
36.34 	15
36.36 	10
36.38 	14
36.4 	19
36.42 	12
36.44 	12
36.46 	17
36.48 	16
36.5 	19
36.52 	17
36.54 	11
36.56 	12
36.58 	12
36.6 	14
36.62 	11
36.64 	19
36.66 	13
36.68 	10
36.7 	18
36.72 	14
36.74 	12
36.76 	18
36.78 	17
36.8 	6
36.82 	10
36.84 	22
36.86 	20
36.88 	15
36.9 	18
36.92 	9
36.94 	18
36.96 	15
36.98 	15
37 	12
37.02 	15
37.04 	11
37.06 	19
37.08 	18
37.1 	17
37.12 	12
37.14 	14
37.16 	14
37.18 	19
37.2 	18
37.22 	17
37.24 	16
37.26 	10
37.28 	14
37.3 	12
37.32 	16
37.34 	23
37.36 	15
37.38 	27
37.4 	22
37.42 	15
37.44 	16
37.46 	19
37.48 	16
37.5 	30
37.52 	17
37.54 	18
37.56 	27
37.58 	26
37.6 	23
37.62 	23
37.64 	24
37.66 	23
37.68 	25
37.7 	27
37.72 	18
37.74 	25
37.76 	23
37.78 	28
37.8 	28
37.82 	23
37.84 	26
37.86 	25
37.88 	22
37.9 	25
37.92 	16
37.94 	32
37.96 	27
37.98 	20
38 	21
38.02 	29
38.04 	30
38.06 	34
38.08 	32
38.1 	35
38.12 	28
38.14 	37
38.16 	46
38.18 	38
38.2 	45
38.22 	43
38.24 	41
38.26 	42
38.28 	43
38.3 	55
38.32 	70
38.34 	94
38.36 	148
38.38 	138
38.4 	176
38.42 	313
38.44 	477
38.46 	632
38.48 	870
38.5 	935
38.52 	815
38.54 	664
38.56 	569
38.58 	558
38.6 	568
38.62 	437
38.64 	296
38.66 	160
38.68 	120
38.7 	100
38.72 	81
38.74 	62
38.76 	49
38.78 	36
38.8 	48
38.82 	39
38.84 	26
38.86 	38
38.88 	26
38.9 	31
38.92 	38
38.94 	27
38.96 	26
38.98 	26
39 	23
39.02 	29
39.04 	23
39.06 	21
39.08 	27
39.1 	23
39.12 	27
39.14 	32
39.16 	33
39.18 	24
39.2 	23
39.22 	16
39.24 	34
39.26 	24
39.28 	21
39.3 	16
39.32 	26
39.34 	27
39.36 	23
39.38 	19
39.4 	26
39.42 	22
39.44 	21
39.46 	17
39.48 	27
39.5 	29
39.52 	26
39.54 	15
39.56 	20
39.58 	20
39.6 	13
39.62 	12
39.64 	23
39.66 	19
39.68 	20
39.7 	16
39.72 	26
39.74 	17
39.76 	22
39.78 	19
39.8 	16
39.82 	14
39.84 	18
39.86 	28
39.88 	20
39.9 	22
39.92 	16
39.94 	14
39.96 	23
39.98 	17
40 	31
40.02 	19
40.04 	13
40.06 	28
40.08 	21
40.1 	37
40.12 	31
40.14 	35
40.16 	31
40.18 	42
40.2 	57
40.22 	55
40.24 	51
40.26 	59
40.28 	64
40.3 	65
40.32 	70
40.34 	76
40.36 	114
40.38 	118
40.4 	115
40.42 	116
40.44 	151
40.46 	124
40.48 	112
40.5 	114
40.52 	122
40.54 	121
40.56 	107
40.58 	85
40.6 	93
40.62 	68
40.64 	59
40.66 	55
40.68 	53
40.7 	48
40.72 	35
40.74 	28
40.76 	21
40.78 	33
40.8 	24
40.82 	23
40.84 	19
40.86 	10
40.88 	21
40.9 	16
40.92 	17
40.94 	14
40.96 	16
40.98 	15
41 	17
41.02 	19
41.04 	13
41.06 	14
41.08 	19
41.1 	15
41.12 	17
41.14 	20
41.16 	16
41.18 	15
41.2 	19
41.22 	19
41.24 	12
41.26 	15
41.28 	14
41.3 	9
41.32 	13
41.34 	14
41.36 	13
41.38 	14
41.4 	10
41.42 	13
41.44 	18
41.46 	15
41.48 	9
41.5 	11
41.52 	12
41.54 	10
41.56 	15
41.58 	14
41.6 	14
41.62 	21
41.64 	11
41.66 	20
41.68 	14
41.7 	18
41.72 	15
41.74 	12
41.76 	9
41.78 	17
41.8 	12
41.82 	13
41.84 	11
41.86 	11
41.88 	12
41.9 	16
41.92 	15
41.94 	19
41.96 	6
41.98 	13
42 	12
42.02 	18
42.04 	9
42.06 	14
42.08 	16
42.1 	11
42.12 	10
42.14 	6
42.16 	10
42.18 	11
42.2 	14
42.22 	14
42.24 	16
42.26 	16
42.28 	9
42.3 	8
42.32 	13
42.34 	9
42.36 	14
42.38 	14
42.4 	12
42.42 	14
42.44 	9
42.46 	9
42.48 	15
42.5 	10
42.52 	16
42.54 	5
42.56 	16
42.58 	14
42.6 	11
42.62 	6
42.64 	18
42.66 	18
42.68 	7
42.7 	12
42.72 	8
42.74 	10
42.76 	16
42.78 	6
42.8 	10
42.82 	6
42.84 	10
42.86 	12
42.88 	10
42.9 	8
42.92 	10
42.94 	8
42.96 	8
42.98 	11
43 	8
43.02 	13
43.04 	15
43.06 	11
43.08 	11
43.1 	17
43.12 	18
43.14 	14
43.16 	14
43.18 	10
43.2 	23
43.22 	13
43.24 	11
43.26 	18
43.28 	17
43.3 	14
43.32 	9
43.34 	13
43.36 	7
43.38 	12
43.4 	17
43.42 	13
43.44 	8
43.46 	20
43.48 	18
43.5 	10
43.52 	13
43.54 	18
43.56 	19
43.58 	14
43.6 	12
43.62 	16
43.64 	11
43.66 	15
43.68 	16
43.7 	13
43.72 	20
43.74 	15
43.76 	15
43.78 	13
43.8 	17
43.82 	20
43.84 	15
43.86 	10
43.88 	16
43.9 	13
43.92 	15
43.94 	19
43.96 	9
43.98 	17
44 	19
44.02 	17
44.04 	21
44.06 	25
44.08 	17
44.1 	15
44.12 	25
44.14 	17
44.16 	18
44.18 	21
44.2 	28
44.22 	21
44.24 	18
44.26 	27
44.28 	24
44.3 	36
44.32 	33
44.34 	27
44.36 	29
44.38 	21
44.4 	26
44.42 	22
44.44 	31
44.46 	35
44.48 	28
44.5 	40
44.52 	27
44.54 	46
44.56 	49
44.58 	54
44.6 	69
44.62 	91
44.64 	151
44.66 	239
44.68 	313
44.7 	475
44.72 	469
44.74 	450
44.76 	320
44.78 	271
44.8 	213
44.82 	265
44.84 	280
44.86 	226
44.88 	143
44.9 	91
44.92 	73
44.94 	53
44.96 	35
44.98 	22
45 	18
45.02 	21
45.04 	18
45.06 	20
45.08 	16
45.1 	9
45.12 	18
45.14 	18
45.16 	9
45.18 	14
45.2 	22
45.22 	12
45.24 	13
45.26 	16
45.28 	13
45.3 	14
45.32 	9
45.34 	9
45.36 	9
45.38 	8
45.4 	6
45.42 	13
45.44 	14
45.46 	12
45.48 	15
45.5 	8
45.52 	9
45.54 	13
45.56 	12
45.58 	13
45.6 	18
45.62 	7
45.64 	13
45.66 	11
45.68 	16
45.7 	20
45.72 	7
45.74 	11
45.76 	6
45.78 	12
45.8 	17
45.82 	11
45.84 	13
45.86 	11
45.88 	8
45.9 	7
45.92 	9
45.94 	9
45.96 	17
45.98 	15
46 	13
46.02 	6
46.04 	16
46.06 	8
46.08 	6
46.1 	10
46.12 	9
46.14 	15
46.16 	12
46.18 	16
46.2 	9
46.22 	8
46.24 	12
46.26 	7
46.28 	19
46.3 	15
46.32 	7
46.34 	19
46.36 	7
46.38 	13
46.4 	11
46.42 	9
46.44 	12
46.46 	10
46.48 	8
46.5 	10
46.52 	8
46.54 	13
46.56 	8
46.58 	9
46.6 	10
46.62 	14
46.64 	7
46.66 	14
46.68 	9
46.7 	6
46.72 	13
46.74 	9
46.76 	9
46.78 	6
46.8 	11
46.82 	18
46.84 	5
46.86 	7
46.88 	14
46.9 	11
46.92 	11
46.94 	9
46.96 	10
46.98 	11
47 	9
47.02 	5
47.04 	3
47.06 	13
47.08 	15
47.1 	11
47.12 	10
47.14 	11
47.16 	12
47.18 	10
47.2 	7
47.22 	9
47.24 	8
47.26 	10
47.28 	8
47.3 	9
47.32 	3
47.34 	15
47.36 	10
47.38 	11
47.4 	7
47.42 	14
47.44 	10
47.46 	16
47.48 	5
47.5 	12
47.52 	9
47.54 	15
47.56 	9
47.58 	18
47.6 	8
47.62 	10
47.64 	14
47.66 	9
47.68 	6
47.7 	10
47.72 	19
47.74 	11
47.76 	10
47.78 	8
47.8 	5
47.82 	15
47.84 	13
47.86 	6
47.88 	7
47.9 	13
47.92 	13
47.94 	10
47.96 	10
47.98 	6
48 	8
48.02 	19
48.04 	6
48.06 	11
48.08 	4
48.1 	6
48.12 	14
48.14 	9
48.16 	7
48.18 	19
48.2 	11
48.22 	12
48.24 	6
48.26 	9
48.28 	12
48.3 	9
48.32 	10
48.34 	12
48.36 	14
48.38 	11
48.4 	11
48.42 	7
48.44 	7
48.46 	11
48.48 	8
48.5 	6
48.52 	9
48.54 	5
48.56 	10
48.58 	8
48.6 	10
48.62 	7
48.64 	7
48.66 	5
48.68 	10
48.7 	8
48.72 	9
48.74 	11
48.76 	5
48.78 	12
48.8 	19
48.82 	13
48.84 	14
48.86 	7
48.88 	16
48.9 	6
48.92 	8
48.94 	10
48.96 	12
48.98 	13
49 	4
49.02 	4
49.04 	4
49.06 	14
49.08 	9
49.1 	8
49.12 	13
49.14 	7
49.16 	4
49.18 	7
49.2 	9
49.22 	13
49.24 	7
49.26 	8
49.28 	8
49.3 	7
49.32 	9
49.34 	5
49.36 	14
49.38 	10
49.4 	5
49.42 	10
49.44 	7
49.46 	10
49.48 	8
49.5 	15
49.52 	9
49.54 	11
49.56 	8
49.58 	10
49.6 	4
49.62 	14
49.64 	9
49.66 	11
49.68 	10
49.7 	4
49.72 	9
49.74 	9
49.76 	9
49.78 	7
49.8 	8
49.82 	8
49.84 	7
49.86 	15
49.88 	5
49.9 	12
49.92 	12
49.94 	8
49.96 	10
49.98 	8
50 	6
50.02 	9
50.04 	5
50.06 	4
50.08 	3
50.1 	9
50.12 	10
50.14 	6
50.16 	10
50.18 	9
50.2 	7
50.22 	12
50.24 	6
50.26 	7
50.28 	6
50.3 	8
50.32 	9
50.34 	6
50.36 	15
50.38 	8
50.4 	9
50.42 	9
50.44 	5
50.46 	16
50.48 	5
50.5 	13
50.52 	6
50.54 	9
50.56 	12
50.58 	10
50.6 	11
50.62 	10
50.64 	11
50.66 	7
50.68 	8
50.7 	6
50.72 	10
50.74 	6
50.76 	6
50.78 	8
50.8 	3
50.82 	9
50.84 	10
50.86 	6
50.88 	12
50.9 	13
50.92 	11
50.94 	7
50.96 	3
50.98 	11
51 	11
51.02 	1
51.04 	7
51.06 	11
51.08 	4
51.1 	10
51.12 	11
51.14 	2
51.16 	5
51.18 	6
51.2 	9
51.22 	12
51.24 	6
51.26 	6
51.28 	6
51.3 	8
51.32 	5
51.34 	5
51.36 	11
51.38 	6
51.4 	5
51.42 	7
51.44 	9
51.46 	8
51.48 	9
51.5 	9
51.52 	9
51.54 	9
51.56 	5
51.58 	11
51.6 	13
51.62 	17
51.64 	5
51.66 	6
51.68 	4
51.7 	8
51.72 	9
51.74 	8
51.76 	7
51.78 	8
51.8 	13
51.82 	7
51.84 	10
51.86 	2
51.88 	6
51.9 	15
51.92 	4
51.94 	4
51.96 	7
51.98 	11
52 	10
52.02 	5
52.04 	9
52.06 	9
52.08 	8
52.1 	7
52.12 	9
52.14 	11
52.16 	11
52.18 	9
52.2 	10
52.22 	6
52.24 	16
52.26 	11
52.28 	4
52.3 	5
52.32 	9
52.34 	9
52.36 	6
52.38 	10
52.4 	2
52.42 	8
52.44 	10
52.46 	8
52.48 	8
52.5 	11
52.52 	7
52.54 	8
52.56 	10
52.58 	9
52.6 	6
52.62 	8
52.64 	6
52.66 	6
52.68 	4
52.7 	13
52.72 	4
52.74 	10
52.76 	7
52.78 	12
52.8 	14
52.82 	5
52.84 	7
52.86 	7
52.88 	10
52.9 	9
52.92 	3
52.94 	8
52.96 	11
52.98 	6
53 	10
53.02 	13
53.04 	6
53.06 	11
53.08 	15
53.1 	8
53.12 	12
53.14 	13
53.16 	18
53.18 	11
53.2 	12
53.22 	17
53.24 	22
53.26 	19
53.28 	21
53.3 	25
53.32 	18
53.34 	27
53.36 	23
53.38 	21
53.4 	18
53.42 	26
53.44 	12
53.46 	15
53.48 	16
53.5 	20
53.52 	16
53.54 	6
53.56 	16
53.58 	11
53.6 	8
53.62 	9
53.64 	4
53.66 	10
53.68 	12
53.7 	11
53.72 	9
53.74 	6
53.76 	4
53.78 	8
53.8 	7
53.82 	12
53.84 	8
53.86 	7
53.88 	8
53.9 	11
53.92 	4
53.94 	12
53.96 	8
53.98 	7
54 	4
54.02 	9
54.04 	7
54.06 	6
54.08 	5
54.1 	8
54.12 	7
54.14 	9
54.16 	3
54.18 	4
54.2 	10
54.22 	3
54.24 	5
54.26 	8
54.28 	5
54.3 	3
54.32 	5
54.34 	10
54.36 	2
54.38 	6
54.4 	3
54.42 	7
54.44 	10
54.46 	4
54.48 	10
54.5 	7
54.52 	9
54.54 	4
54.56 	8
54.58 	9
54.6 	5
54.62 	16
54.64 	7
54.66 	5
54.68 	5
54.7 	3
54.72 	10
54.74 	10
54.76 	6
54.78 	8
54.8 	6
54.82 	4
54.84 	7
54.86 	9
54.88 	9
54.9 	8
54.92 	9
54.94 	11
54.96 	1
54.98 	11
55 	8
55.02 	9
55.04 	6
55.06 	2
55.08 	10
55.1 	9
55.12 	5
55.14 	6
55.16 	12
55.18 	7
55.2 	6
55.22 	9
55.24 	12
55.26 	9
55.28 	5
55.3 	1
55.32 	10
55.34 	8
55.36 	3
55.38 	7
55.4 	8
55.42 	5
55.44 	6
55.46 	6
55.48 	6
55.5 	9
55.52 	9
55.54 	9
55.56 	11
55.58 	6
55.6 	5
55.62 	10
55.64 	7
55.66 	7
55.68 	8
55.7 	13
55.72 	7
55.74 	4
55.76 	4
55.78 	4
55.8 	12
55.82 	8
55.84 	5
55.86 	11
55.88 	3
55.9 	2
55.92 	5
55.94 	9
55.96 	5
55.98 	9
56 	3
56.02 	9
56.04 	5
56.06 	7
56.08 	5
56.1 	7
56.12 	7
56.14 	6
56.16 	6
56.18 	12
56.2 	7
56.22 	8
56.24 	3
56.26 	8
56.28 	8
56.3 	7
56.32 	6
56.34 	4
56.36 	7
56.38 	11
56.4 	14
56.42 	8
56.44 	6
56.46 	9
56.48 	6
56.5 	5
56.52 	9
56.54 	4
56.56 	6
56.58 	4
56.6 	8
56.62 	7
56.64 	8
56.66 	9
56.68 	7
56.7 	8
56.72 	7
56.74 	8
56.76 	8
56.78 	5
56.8 	10
56.82 	6
56.84 	2
56.86 	8
56.88 	10
56.9 	6
56.92 	10
56.94 	9
56.96 	7
56.98 	7
57 	6
57.02 	8
57.04 	4
57.06 	4
57.08 	10
57.1 	6
57.12 	14
57.14 	7
57.16 	6
57.18 	6
57.2 	9
57.22 	10
57.24 	4
57.26 	11
57.28 	14
57.3 	5
57.32 	9
57.34 	13
57.36 	9
57.38 	7
57.4 	5
57.42 	8
57.44 	16
57.46 	5
57.48 	5
57.5 	5
57.52 	8
57.54 	5
57.56 	6
57.58 	7
57.6 	4
57.62 	3
57.64 	1
57.66 	8
57.68 	6
57.7 	2
57.72 	8
57.74 	5
57.76 	7
57.78 	9
57.8 	8
57.82 	9
57.84 	3
57.86 	9
57.88 	8
57.9 	5
57.92 	9
57.94 	2
57.96 	12
57.98 	7
58 	6
58.02 	6
58.04 	4
58.06 	6
58.08 	3
58.1 	4
58.12 	10
58.14 	5
58.16 	4
58.18 	13
58.2 	7
58.22 	4
58.24 	4
58.26 	7
58.28 	14
58.3 	10
58.32 	8
58.34 	8
58.36 	9
58.38 	4
58.4 	8
58.42 	2
58.44 	4
58.46 	5
58.48 	5
58.5 	7
58.52 	8
58.54 	7
58.56 	3
58.58 	7
58.6 	3
58.62 	7
58.64 	2
58.66 	4
58.68 	5
58.7 	7
58.72 	9
58.74 	4
58.76 	6
58.78 	9
58.8 	7
58.82 	8
58.84 	3
58.86 	8
58.88 	9
58.9 	6
58.92 	12
58.94 	8
58.96 	11
58.98 	6
59 	6
59.02 	7
59.04 	4
59.06 	5
59.08 	9
59.1 	5
59.12 	8
59.14 	7
59.16 	4
59.18 	2
59.2 	1
59.22 	6
59.24 	8
59.26 	7
59.28 	4
59.3 	5
59.32 	6
59.34 	7
59.36 	8
59.38 	4
59.4 	5
59.42 	3
59.44 	10
59.46 	7
59.48 	6
59.5 	8
59.52 	8
59.54 	8
59.56 	4
59.58 	4
59.6 	7
59.62 	13
59.64 	5
59.66 	7
59.68 	4
59.7 	8
59.72 	4
59.74 	7
59.76 	6
59.78 	5
59.8 	7
59.82 	10
59.84 	7
59.86 	3
59.88 	6
59.9 	4
59.92 	4
59.94 	3
59.96 	3
59.98 	4
60 	8
60.02 	6
60.04 	8
60.06 	5
60.08 	6
60.1 	9
60.12 	13
60.14 	4
60.16 	5
60.18 	2
60.2 	6
60.22 	7
60.24 	7
60.26 	6
60.28 	2
60.3 	4
60.32 	4
60.34 	6
60.36 	3
60.38 	3
60.4 	4
60.42 	6
60.44 	7
60.46 	7
60.48 	3
60.5 	8
60.52 	4
60.54 	8
60.56 	6
60.58 	6
60.6 	10
60.62 	8
60.64 	5
60.66 	6
60.68 	5
60.7 	3
60.72 	5
60.74 	6
60.76 	6
60.78 	12
60.8 	8
60.82 	3
60.84 	4
60.86 	8
60.88 	8
60.9 	6
60.92 	9
60.94 	6
60.96 	7
60.98 	9
61 	3
61.02 	8
61.04 	5
61.06 	5
61.08 	7
61.1 	10
61.12 	6
61.14 	3
61.16 	10
61.18 	5
61.2 	9
61.22 	6
61.24 	7
61.26 	5
61.28 	3
61.3 	1
61.32 	5
61.34 	4
61.36 	9
61.38 	5
61.4 	7
61.42 	6
61.44 	7
61.46 	4
61.48 	2
61.5 	9
61.52 	4
61.54 	4
61.56 	7
61.58 	5
61.6 	7
61.62 	6
61.64 	3
61.66 	7
61.68 	10
61.7 	4
61.72 	5
61.74 	7
61.76 	6
61.78 	8
61.8 	9
61.82 	8
61.84 	4
61.86 	9
61.88 	10
61.9 	9
61.92 	7
61.94 	5
61.96 	10
61.98 	5
62 	11
62.02 	7
62.04 	8
62.06 	4
62.08 	5
62.1 	6
62.12 	10
62.14 	8
62.16 	4
62.18 	3
62.2 	8
62.22 	5
62.24 	6
62.26 	9
62.28 	8
62.3 	8
62.32 	9
62.34 	8
62.36 	4
62.38 	4
62.4 	6
62.42 	5
62.44 	8
62.46 	5
62.48 	6
62.5 	8
62.52 	7
62.54 	9
62.56 	4
62.58 	4
62.6 	7
62.62 	2
62.64 	8
62.66 	10
62.68 	4
62.7 	10
62.72 	5
62.74 	5
62.76 	6
62.78 	6
62.8 	5
62.82 	8
62.84 	7
62.86 	11
62.88 	9
62.9 	6
62.92 	10
62.94 	3
62.96 	10
62.98 	3
63 	5
63.02 	9
63.04 	13
63.06 	11
63.08 	10
63.1 	10
63.12 	9
63.14 	8
63.16 	11
63.18 	10
63.2 	5
63.22 	15
63.24 	6
63.26 	9
63.28 	12
63.3 	14
63.32 	11
63.34 	8
63.36 	19
63.38 	9
63.4 	21
63.42 	10
63.44 	14
63.46 	13
63.48 	13
63.5 	16
63.52 	12
63.54 	19
63.56 	15
63.58 	16
63.6 	14
63.62 	12
63.64 	16
63.66 	12
63.68 	11
63.7 	18
63.72 	14
63.74 	10
63.76 	10
63.78 	8
63.8 	11
63.82 	18
63.84 	11
63.86 	10
63.88 	7
63.9 	9
63.92 	9
63.94 	7
63.96 	10
63.98 	7
64 	8
64.02 	6
64.04 	7
64.06 	11
64.08 	7
64.1 	8
64.12 	9
64.14 	8
64.16 	5
64.18 	7
64.2 	7
64.22 	9
64.24 	6
64.26 	7
64.28 	2
64.3 	9
64.32 	10
64.34 	7
64.36 	8
64.38 	11
64.4 	4
64.42 	8
64.44 	9
64.46 	9
64.48 	4
64.5 	5
64.52 	13
64.54 	10
64.56 	9
64.58 	5
64.6 	10
64.62 	7
64.64 	5
64.66 	13
64.68 	9
64.7 	10
64.72 	6
64.74 	10
64.76 	12
64.78 	9
64.8 	11
64.82 	14
64.84 	16
64.86 	21
64.88 	14
64.9 	14
64.92 	13
64.94 	19
64.96 	32
64.98 	52
65 	62
65.02 	102
65.04 	105
65.06 	98
65.08 	86
65.1 	65
65.12 	53
65.14 	51
65.16 	45
65.18 	53
65.2 	73
65.22 	54
65.24 	57
65.26 	54
65.28 	43
65.3 	30
65.32 	27
65.34 	13
65.36 	20
65.38 	16
65.4 	12
65.42 	7
65.44 	9
65.46 	10
65.48 	8
65.5 	12
65.52 	9
65.54 	4
65.56 	7
65.58 	4
65.6 	6
65.62 	8
65.64 	11
65.66 	5
65.68 	4
65.7 	8
65.72 	7
65.74 	8
65.76 	7
65.78 	9
65.8 	7
65.82 	3
65.84 	5
65.86 	6
65.88 	10
65.9 	9
65.92 	7
65.94 	4
65.96 	8
65.98 	6
66 	4
66.02 	5
66.04 	6
66.06 	4
66.08 	2
66.1 	3
66.12 	4
66.14 	2
66.16 	4
66.18 	7
66.2 	7
66.22 	2
66.24 	2
66.26 	4
66.28 	3
66.3 	7
66.32 	2
66.34 	10
66.36 	10
66.38 	4
66.4 	6
66.42 	6
66.44 	1
66.46 	6
66.48 	10
66.5 	6
66.52 	4
66.54 	7
66.56 	3
66.58 	5
66.6 	6
66.62 	8
66.64 	4
66.66 	2
66.68 	6
66.7 	8
66.72 	0
66.74 	4
66.76 	9
66.78 	5
66.8 	3
66.82 	7
66.84 	9
66.86 	5
66.88 	6
66.9 	1
66.92 	7
66.94 	9
66.96 	6
66.98 	8
67 	6
67.02 	10
67.04 	6
67.06 	7
67.08 	9
67.1 	4
67.12 	6
67.14 	8
67.16 	7
67.18 	4
67.2 	8
67.22 	7
67.24 	6
67.26 	6
67.28 	8
67.3 	3
67.32 	6
67.34 	9
67.36 	4
67.38 	7
67.4 	7
67.42 	6
67.44 	7
67.46 	5
67.48 	11
67.5 	4
67.52 	6
67.54 	7
67.56 	5
67.58 	7
67.6 	3
67.62 	8
67.64 	6
67.66 	10
67.68 	5
67.7 	8
67.72 	5
67.74 	7
67.76 	2
67.78 	12
67.8 	6
67.82 	13
67.84 	6
67.86 	7
67.88 	5
67.9 	4
67.92 	5
67.94 	7
67.96 	8
67.98 	5
68 	0
68.02 	6
68.04 	9
68.06 	5
68.08 	4
68.1 	8
68.12 	9
68.14 	13
68.16 	7
68.18 	7
68.2 	6
68.22 	8
68.24 	9
68.26 	8
68.28 	8
68.3 	7
68.32 	1
68.34 	4
68.36 	8
68.38 	7
68.4 	6
68.42 	7
68.44 	8
68.46 	6
68.48 	2
68.5 	9
68.52 	11
68.54 	9
68.56 	4
68.58 	5
68.6 	9
68.62 	8
68.64 	2
68.66 	7
68.68 	8
68.7 	8
68.72 	8
68.74 	10
68.76 	7
68.78 	8
68.8 	8
68.82 	7
68.84 	9
68.86 	10
68.88 	4
68.9 	10
68.92 	3
68.94 	7
68.96 	6
68.98 	2
69 	6
69.02 	3
69.04 	4
69.06 	8
69.08 	5
69.1 	7
69.12 	6
69.14 	7
69.16 	4
69.18 	4
69.2 	8
69.22 	6
69.24 	11
69.26 	10
69.28 	13
69.3 	3
69.32 	7
69.34 	5
69.36 	7
69.38 	7
69.4 	2
69.42 	8
69.44 	3
69.46 	3
69.48 	5
69.5 	5
69.52 	4
69.54 	6
69.56 	6
69.58 	5
69.6 	7
69.62 	8
69.64 	2
69.66 	11
69.68 	5
69.7 	7
69.72 	9
69.74 	2
69.76 	9
69.78 	5
69.8 	6
69.82 	12
69.84 	5
69.86 	4
69.88 	6
69.9 	9
69.92 	10
69.94 	6
69.96 	7
69.98 	0
70 	5
70.02 	9
70.04 	11
70.06 	4
70.08 	9
70.1 	11
70.12 	7
70.14 	6
70.16 	1
70.18 	8
70.2 	7
70.22 	7
70.24 	5
70.26 	6
70.28 	10
70.3 	8
70.32 	4
70.34 	6
70.36 	8
70.38 	5
70.4 	9
70.42 	6
70.44 	1
70.46 	10
70.48 	7
70.5 	5
70.52 	4
70.54 	6
70.56 	10
70.58 	4
70.6 	8
70.62 	8
70.64 	6
70.66 	5
70.68 	9
70.7 	12
70.72 	12
70.74 	8
70.76 	6
70.78 	10
70.8 	13
70.82 	17
70.84 	12
70.86 	10
70.88 	17
70.9 	14
70.92 	18
70.94 	22
70.96 	25
70.98 	27
71 	28
71.02 	23
71.04 	22
71.06 	31
71.08 	26
71.1 	24
71.12 	22
71.14 	18
71.16 	20
71.18 	26
71.2 	16
71.22 	14
71.24 	15
71.26 	14
71.28 	21
71.3 	14
71.32 	16
71.34 	15
71.36 	11
71.38 	11
71.4 	9
71.42 	10
71.44 	14
71.46 	5
71.48 	13
71.5 	7
71.52 	10
71.54 	10
71.56 	6
71.58 	7
71.6 	14
71.62 	8
71.64 	7
71.66 	6
71.68 	12
71.7 	5
71.72 	8
71.74 	4
71.76 	8
71.78 	9
71.8 	7
71.82 	8
71.84 	11
71.86 	9
71.88 	8
71.9 	5
71.92 	5
71.94 	5
71.96 	11
71.98 	5
72 	6
72.02 	8
72.04 	6
72.06 	5
72.08 	2
72.1 	13
72.12 	5
72.14 	9
72.16 	7
72.18 	5
72.2 	6
72.22 	3
72.24 	9
72.26 	3
72.28 	4
72.3 	5
72.32 	7
72.34 	7
72.36 	9
72.38 	6
72.4 	8
72.42 	7
72.44 	11
72.46 	4
72.48 	9
72.5 	10
72.52 	5
72.54 	3
72.56 	6
72.58 	13
72.6 	12
72.62 	3
72.64 	6
72.66 	8
72.68 	7
72.7 	5
72.72 	7
72.74 	8
72.76 	10
72.78 	7
72.8 	10
72.82 	7
72.84 	5
72.86 	8
72.88 	5
72.9 	4
72.92 	6
72.94 	7
72.96 	7
72.98 	9
73 	4
73.02 	7
73.04 	7
73.06 	7
73.08 	5
73.1 	5
73.12 	10
73.14 	4
73.16 	7
73.18 	4
73.2 	4
73.22 	7
73.24 	3
73.26 	4
73.28 	6
73.3 	5
73.32 	5
73.34 	8
73.36 	2
73.38 	3
73.4 	2
73.42 	5
73.44 	6
73.46 	4
73.48 	6
73.5 	10
73.52 	5
73.54 	9
73.56 	3
73.58 	10
73.6 	4
73.62 	6
73.64 	5
73.66 	4
73.68 	7
73.7 	2
73.72 	10
73.74 	7
73.76 	4
73.78 	4
73.8 	5
73.82 	6
73.84 	9
73.86 	4
73.88 	7
73.9 	8
73.92 	8
73.94 	11
73.96 	4
73.98 	6
74 	6
74.02 	8
74.04 	3
74.06 	10
74.08 	8
74.1 	7
74.12 	8
74.14 	3
74.16 	5
74.18 	4
74.2 	4
74.22 	11
74.24 	9
74.26 	8
74.28 	4
74.3 	6
74.32 	7
74.34 	5
74.36 	5
74.38 	6
74.4 	8
74.42 	7
74.44 	5
74.46 	2
74.48 	5
74.5 	3
74.52 	7
74.54 	10
74.56 	9
74.58 	7
74.6 	4
74.62 	7
74.64 	4
74.66 	5
74.68 	8
74.7 	7
74.72 	7
74.74 	7
74.76 	11
74.78 	11
74.8 	7
74.82 	11
74.84 	12
74.86 	10
74.88 	8
74.9 	11
74.92 	3
74.94 	7
74.96 	11
74.98 	5
75 	10
75.02 	8
75.04 	6
75.06 	11
75.08 	5
75.1 	11
75.12 	8
75.14 	7
75.16 	6
75.18 	9
75.2 	1
75.22 	6
75.24 	2
75.26 	11
75.28 	7
75.3 	8
75.32 	6
75.34 	4
75.36 	7
75.38 	3
75.4 	11
75.42 	7
75.44 	3
75.46 	5
75.48 	5
75.5 	9
75.52 	10
75.54 	6
75.56 	9
75.58 	8
75.6 	5
75.62 	6
75.64 	7
75.66 	6
75.68 	3
75.7 	4
75.72 	5
75.74 	5
75.76 	9
75.78 	3
75.8 	3
75.82 	4
75.84 	6
75.86 	7
75.88 	5
75.9 	14
75.92 	7
75.94 	7
75.96 	7
75.98 	3
76 	5
76.02 	4
76.04 	4
76.06 	8
76.08 	4
76.1 	8
76.12 	5
76.14 	3
76.16 	8
76.18 	7
76.2 	10
76.22 	8
76.24 	3
76.26 	11
76.28 	5
76.3 	8
76.32 	9
76.34 	9
76.36 	9
76.38 	3
76.4 	9
76.42 	8
76.44 	14
76.46 	9
76.48 	5
76.5 	7
76.52 	11
76.54 	12
76.56 	11
76.58 	13
76.6 	8
76.62 	12
76.64 	15
76.66 	13
76.68 	16
76.7 	13
76.72 	16
76.74 	15
76.76 	18
76.78 	10
76.8 	11
76.82 	19
76.84 	19
76.86 	12
76.88 	12
76.9 	17
76.92 	16
76.93999 	17
76.96 	12
76.98 	13
77 	14
77.02 	12
77.04 	22
77.06 	11
77.08 	14
77.1 	21
77.12 	6
77.14 	7
77.16 	10
77.18 	6
77.2 	13
77.22 	14
77.24 	13
77.26 	6
77.28 	8
77.3 	12
77.32 	4
77.34 	9
77.36 	14
77.38 	7
77.4 	5
77.42 	9
77.43999 	3
77.46 	10
77.48 	8
77.5 	7
77.52 	9
77.54 	8
77.56 	11
77.58 	8
77.6 	14
77.62 	11
77.64 	13
77.66 	4
77.68 	7
77.7 	17
77.72 	12
77.74 	13
77.76 	10
77.78 	19
77.8 	15
77.82 	11
77.84 	22
77.86 	16
77.88 	16
77.9 	20
77.92 	15
77.93999 	12
77.96 	29
77.98 	18
78 	24
78.02 	24
78.04 	39
78.06 	37
78.08 	49
78.1 	56
78.12 	84
78.14 	104
78.16 	75
78.18 	72
78.2 	58
78.22 	60
78.24 	48
78.26 	44
78.28 	32
78.3 	49
78.32 	46
78.34 	51
78.36 	40
78.38 	47
78.4 	46
78.42 	45
78.43999 	39
78.46 	28
78.48 	23
78.5 	17
78.52 	13
78.54 	10
78.56 	7
78.58 	10
78.6 	11
78.62 	12
78.64 	12
78.66 	8
78.68 	6
78.7 	11
78.72 	10
78.74 	8
78.76 	13
78.78 	9
78.8 	4
78.82 	4
78.84 	4
78.86 	8
78.88 	7
78.9 	7
78.92 	7
78.93999 	7
78.96 	4
78.98 	8
79 	6
79.02 	4
79.04 	8
79.06 	8
79.08 	8
79.1 	6
79.12 	6
79.14 	7
79.16 	10
79.18 	4
79.2 	10
79.22 	5
79.24 	7
79.26 	2
79.28 	6
79.3 	7
79.32 	6
79.34 	11
79.36 	8
79.38 	6
79.4 	3
79.42 	3
79.43999 	12
79.46 	10
79.48 	7
79.5 	9
79.52 	3
79.54 	3
79.56 	11
79.58 	6
79.6 	5
79.62 	6
79.64 	5
79.66 	5
79.68 	7
79.7 	8
79.72 	7
79.74 	5
79.76 	4
79.78 	11
79.8 	9
79.82 	7
79.84 	6
79.86 	8
79.88 	5
79.9 	4
79.92 	3
79.93999 	7
79.96 	10
79.98 	10
80 	6
80.02 	5
80.04 	6
80.06 	3
80.08 	7
80.1 	4
80.12 	5
80.14 	5
80.16 	3
80.18 	3
80.2 	4
80.22 	5
80.24 	9
80.26 	4
80.28 	5
80.3 	3
80.32 	4
80.34 	4
80.36 	4
80.38 	6
80.4 	5
80.42 	5
80.43999 	10
80.46 	2
80.48 	2
80.5 	0
80.52 	6
80.54 	10
80.56 	7
80.58 	3
80.6 	7
80.62 	1
80.64 	6
80.66 	2
80.68 	0
80.7 	7
80.72 	6
80.74 	6
80.76 	4
80.78 	5
80.8 	5
80.82 	2
80.84 	4
80.86 	7
80.88 	11
80.9 	7
80.92 	2
80.93999 	5
80.96 	2
80.98 	4
81 	7
81.02 	3
81.04 	2
81.06 	9
81.08 	10
81.1 	5
81.12 	7
81.14 	8
81.16 	7
81.18 	5
81.2 	3
81.22 	1
81.24 	6
81.26 	4
81.28 	2
81.3 	4
81.32 	4
81.34 	5
81.36 	1
81.38 	6
81.4 	7
81.42 	5
81.43999 	6
81.46 	2
81.48 	4
81.5 	3
81.52 	5
81.54 	6
81.56 	5
81.58 	3
81.6 	6
81.62 	9
81.64 	5
81.66 	6
81.68 	4
81.7 	10
81.72 	1
81.74 	8
81.76 	4
81.78 	5
81.8 	7
81.82 	4
81.84 	5
81.86 	2
81.88 	6
81.9 	3
81.92 	9
81.93999 	7
81.96 	6
81.98 	6
82 	4
82.02 	7
82.04 	9
82.06 	6
82.08 	6
82.1 	5
82.12 	8
82.14 	4
82.16 	6
82.18 	10
82.2 	4
82.22 	7
82.24 	8
82.26 	11
82.28 	10
82.3 	6
82.32 	16
82.34 	16
82.36 	13
82.38 	10
82.4 	21
82.42 	12
82.43999 	11
82.46 	13
82.48 	9
82.5 	12
82.52 	9
82.54 	13
82.56 	11
82.58 	9
82.6 	14
82.62 	14
82.64 	12
82.66 	13
82.68 	7
82.7 	18
82.72 	11
82.74 	6
82.76 	8
82.78 	12
82.8 	10
82.82 	12
82.84 	7
82.86 	7
82.88 	6
82.9 	7
82.92 	4
82.93999 	9
82.96 	5
82.98 	12
83 	3
83.02 	6
83.04 	7
83.06 	8
83.08 	4
83.1 	5
83.12 	8
83.14 	9
83.16 	5
83.18 	3
83.2 	10
83.22 	4
83.24 	7
83.26 	3
83.28 	5
83.3 	8
83.32 	3
83.34 	9
83.36 	4
83.38 	3
83.4 	5
83.42 	7
83.43999 	5
83.46 	7
83.48 	5
83.5 	6
83.52 	2
83.54 	4
83.56 	7
83.58 	3
83.6 	4
83.62 	4
83.64 	5
83.66 	2
83.68 	3
83.7 	2
83.72 	6
83.74 	9
83.76 	6
83.78 	9
83.8 	8
83.82 	5
83.84 	3
83.86 	6
83.88 	8
83.9 	4
83.92 	8
83.93999 	6
83.96 	5
83.98 	4
84 	7
84.02 	11
84.04 	2
84.06 	4
84.08 	7
84.1 	7
84.12 	5
84.14 	4
84.16 	7
84.18 	7
84.2 	10
84.22 	4
84.24 	2
84.26 	4
84.28 	7
84.3 	3
84.32 	3
84.34 	4
84.36 	7
84.38 	7
84.4 	8
84.42 	5
84.43999 	3
84.46 	2
84.48 	7
84.5 	4
84.52 	10
84.54 	6
84.56 	6
84.58 	6
84.6 	7
84.62 	5
84.64 	4
84.66 	4
84.68 	6
84.7 	2
84.72 	3
84.74 	7
84.76 	4
84.78 	4
84.8 	7
84.82 	4
84.84 	3
84.86 	6
84.88 	7
84.9 	4
84.92 	8
84.93999 	4
84.96 	4
84.98 	1
85 	6
85.02 	8
85.04 	3
85.06 	5
85.08 	5
85.1 	6
85.12 	5
85.14 	4
85.16 	4
85.18 	5
85.2 	3
85.22 	5
85.24 	4
85.26 	3
85.28 	3
85.3 	9
85.32 	6
85.34 	2
85.36 	5
85.38 	8
85.4 	5
85.42 	5
85.43999 	3
85.46 	4
85.48 	2
85.5 	6
85.52 	8
85.54 	6
85.56 	0
85.58 	3
85.6 	8
85.62 	3
85.64 	2
85.66 	2
85.68 	3
85.7 	2
85.72 	1
85.74 	7
85.76 	2
85.78 	3
85.8 	5
85.82 	2
85.84 	2
85.86 	6
85.88 	5
85.9 	3
85.92 	2
85.93999 	4
85.96 	7
85.98 	1
86 	3
86.02 	6
86.04 	3
86.06 	4
86.08 	4
86.1 	8
86.12 	6
86.14 	4
86.16 	4
86.18 	6
86.2 	4
86.22 	7
86.24 	3
86.26 	7
86.28 	6
86.3 	5
86.32 	3
86.34 	6
86.36 	2
86.38 	4
86.4 	4
86.42 	6
86.43999 	9
86.46 	9
86.48 	9
86.5 	5
86.52 	7
86.54 	6
86.56 	6
86.58 	4
86.6 	4
86.62 	0
86.64 	5
86.66 	3
86.68 	6
86.7 	4
86.72 	2
86.74 	1
86.76 	7
86.78 	3
86.8 	7
86.82 	7
86.84 	7
86.86 	5
86.88 	2
86.9 	4
86.92 	2
86.93999 	5
86.96 	3
86.98 	4
87 	6
87.02 	6
87.04 	4
87.06 	1
87.08 	3
87.1 	4
87.12 	6
87.14 	3
87.16 	4
87.18 	8
87.2 	3
87.22 	4
87.24 	6
87.26 	2
87.28 	4
87.3 	6
87.32 	7
87.34 	5
87.36 	6
87.38 	9
87.4 	6
87.42 	4
87.43999 	8
87.46 	8
87.48 	10
87.5 	7
87.52 	3
87.54 	6
87.56 	8
87.58 	6
87.6 	10
87.62 	6
87.64 	5
87.66 	6
87.68 	3
87.7 	9
87.72 	3
87.74 	4
87.76 	9
87.78 	6
87.8 	7
87.82 	5
87.84 	7
87.86 	6
87.88 	4
87.9 	6
87.92 	4
87.93999 	4
87.96 	3
87.98 	6
88 	3
88.02 	2
88.04 	7
88.06 	5
88.08 	6
88.1 	8
88.12 	6
88.14 	3
88.16 	4
88.18 	3
88.2 	6
88.22 	6
88.24 	3
88.26 	4
88.28 	4
88.3 	5
88.32 	4
88.34 	4
88.36 	1
88.38 	9
88.4 	1
88.42 	7
88.43999 	2
88.46 	6
88.48 	5
88.5 	10
88.52 	3
88.54 	6
88.56 	4
88.58 	5
88.6 	4
88.62 	1
88.64 	2
88.66 	5
88.68 	1
88.7 	5
88.72 	4
88.74 	7
88.76 	3
88.78 	1
88.8 	4
88.82 	5
88.84 	3
88.86 	6
88.88 	2
88.9 	8
88.92 	6
88.93999 	3
88.96 	6
88.98 	2
89 	4
89.02 	6
89.04 	4
89.06 	6
89.08 	4
89.1 	2
89.12 	3
89.14 	8
89.16 	2
89.18 	6
89.2 	8
89.22 	5
89.24 	4
89.26 	3
89.28 	5
89.3 	8
89.32 	8
89.34 	5
89.36 	2
89.38 	4
89.4 	1
89.42 	4
89.43999 	2
89.46 	4
89.48 	5
89.5 	2
89.52 	2
89.54 	2
89.56 	5
89.58 	3
89.6 	2
89.62 	6
89.64 	1
89.66 	8
89.68 	6
89.7 	4
89.72 	6
89.74 	5
89.76 	4
89.78 	4
89.8 	4
89.82 	8
89.84 	9
89.86 	3
89.88 	6
89.9 	3
89.92 	5
89.93999 	3
89.96 	4
89.98 	1
90 	4
