15 	37
15.02 	33
15.04 	32
15.06 	35
15.08 	29
15.1 	30
15.12 	34
15.14 	39
15.16 	37
15.18 	31
15.2 	40
15.22 	39
15.24 	46
15.26 	38
15.28 	37
15.3 	53
15.32 	33
15.34 	43
15.36 	33
15.38 	51
15.4 	51
15.42 	41
15.44 	39
15.46 	38
15.48 	36
15.5 	45
15.52 	57
15.54 	45
15.56 	36
15.58 	45
15.6 	44
15.62 	51
15.64 	49
15.66 	36
15.68 	41
15.7 	49
15.72 	47
15.74 	50
15.76 	36
15.78 	39
15.8 	50
15.82 	41
15.84 	38
15.86 	41
15.88 	59
15.9 	29
15.92 	30
15.94 	45
15.96 	41
15.98 	38
16 	40
16.02 	35
16.04 	42
16.06 	51
16.08 	54
16.1 	42
16.12 	42
16.14 	42
16.16 	39
16.18 	32
16.2 	36
16.22 	50
16.24 	44
16.26 	41
16.28 	44
16.3 	39
16.32 	33
16.34 	41
16.36 	41
16.38 	46
16.4 	43
16.42 	48
16.44 	37
16.46 	48
16.48 	36
16.5 	45
16.52 	44
16.54 	41
16.56 	41
16.58 	43
16.6 	52
16.62 	35
16.64 	39
16.66 	53
16.68 	48
16.7 	48
16.72 	51
16.74 	56
16.76 	47
16.78 	58
16.8 	38
16.82 	40
16.84 	39
16.86 	53
16.88 	26
16.9 	32
16.92 	29
16.94 	36
16.96 	42
16.98 	30
17 	48
17.02 	37
17.04 	41
17.06 	53
17.08 	37
17.1 	33
17.12 	41
17.14 	36
17.16 	34
17.18 	42
17.2 	39
17.22 	42
17.24 	37
17.26 	31
17.28 	33
17.3 	21
17.32 	29
17.34 	31
17.36 	40
17.38 	31
17.4 	43
17.42 	28
17.44 	30
17.46 	32
17.48 	27
17.5 	33
17.52 	23
17.54 	22
17.56 	28
17.58 	17
17.6 	32
17.62 	29
17.64 	26
17.66 	22
17.68 	27
17.7 	28
17.72 	30
17.74 	29
17.76 	29
17.78 	13
17.8 	33
17.82 	23
17.84 	18
17.86 	28
17.88 	21
17.9 	28
17.92 	20
17.94 	34
17.96 	13
17.98 	28
18 	25
18.02 	26
18.04 	21
18.06 	26
18.08 	22
18.1 	33
18.12 	40
18.14 	25
18.16 	29
18.18 	33
18.2 	33
18.22 	18
18.24 	28
18.26 	25
18.28 	34
18.3 	26
18.32 	32
18.34 	27
18.36 	22
18.38 	32
18.4 	26
18.42 	21
18.44 	23
18.46 	28
18.48 	25
18.5 	16
18.52 	22
18.54 	20
18.56 	26
18.58 	21
18.6 	37
18.62 	24
18.64 	36
18.66 	20
18.68 	15
18.7 	23
18.72 	30
18.74 	20
18.76 	31
18.78 	27
18.8 	18
18.82 	26
18.84 	21
18.86 	25
18.88 	30
18.9 	24
18.92 	16
18.94 	27
18.96 	26
18.98 	22
19 	30
19.02 	23
19.04 	27
19.06 	24
19.08 	32
19.1 	25
19.12 	23
19.14 	25
19.16 	27
19.18 	30
19.2 	26
19.22 	15
19.24 	26
19.26 	23
19.28 	33
19.3 	23
19.32 	34
19.34 	37
19.36 	28
19.38 	36
19.4 	30
19.42 	23
19.44 	21
19.46 	22
19.48 	22
19.5 	40
19.52 	30
19.54 	39
19.56 	33
19.58 	32
19.6 	26
19.62 	29
19.64 	22
19.66 	21
19.68 	31
19.7 	25
19.72 	23
19.74 	29
19.76 	26
19.78 	27
19.8 	28
19.82 	28
19.84 	31
19.86 	28
19.88 	24
19.9 	40
19.92 	26
19.94 	28
19.96 	32
19.98 	28
20 	28
20.02 	33
20.04 	35
20.06 	30
20.08 	35
20.1 	25
20.12 	29
20.14 	25
20.16 	41
20.18 	41
20.2 	29
20.22 	30
20.24 	24
20.26 	26
20.28 	20
20.3 	36
20.32 	38
20.34 	32
20.36 	23
20.38 	26
20.4 	23
20.42 	28
20.44 	24
20.46 	25
20.48 	37
20.5 	30
20.52 	30
20.54 	27
20.56 	29
20.58 	27
20.6 	28
20.62 	35
20.64 	26
20.66 	32
20.68 	39
20.7 	28
20.72 	12
20.74 	38
20.76 	27
20.78 	28
20.8 	27
20.82 	31
20.84 	25
20.86 	28
20.88 	32
20.9 	27
20.92 	27
20.94 	32
20.96 	32
20.98 	33
21 	20
21.02 	29
21.04 	29
21.06 	30
21.08 	29
21.1 	19
21.12 	28
21.14 	28
21.16 	20
21.18 	36
21.2 	26
21.22 	32
21.24 	28
21.26 	23
21.28 	27
21.3 	31
21.32 	36
21.34 	25
21.36 	24
21.38 	29
21.4 	31
21.42 	28
21.44 	34
21.46 	27
21.48 	30
21.5 	23
21.52 	39
21.54 	35
21.56 	32
21.58 	34
21.6 	28
21.62 	25
21.64 	26
21.66 	34
21.68 	33
21.7 	30
21.72 	34
21.74 	24
21.76 	30
21.78 	34
21.8 	24
21.82 	38
21.84 	43
21.86 	23
21.88 	34
21.9 	24
21.92 	24
21.94 	28
21.96 	28
21.98 	26
22 	28
22.02 	32
22.04 	33
22.06 	30
22.08 	29
22.1 	24
22.12 	35
22.14 	28
22.16 	33
22.18 	23
22.2 	29
22.22 	24
22.24 	37
22.26 	28
22.28 	19
22.3 	31
22.32 	28
22.34 	28
22.36 	27
22.38 	30
22.4 	26
22.42 	35
22.44 	29
22.46 	29
22.48 	27
22.5 	22
22.52 	25
22.54 	25
22.56 	28
22.58 	29
22.6 	41
22.62 	36
22.64 	31
22.66 	35
22.68 	31
22.7 	37
22.72 	25
22.74 	13
22.76 	28
22.78 	33
22.8 	38
22.82 	31
22.84 	30
22.86 	25
22.88 	33
22.9 	21
22.92 	29
22.94 	25
22.96 	33
22.98 	36
23 	33
23.02 	41
23.04 	18
23.06 	36
23.08 	27
23.1 	23
23.12 	24
23.14 	18
23.16 	19
23.18 	32
23.2 	34
23.22 	31
23.24 	31
23.26 	29
23.28 	30
23.3 	27
23.32 	28
23.34 	18
23.36 	28
23.38 	28
23.4 	19
23.42 	30
23.44 	23
23.46 	29
23.48 	26
23.5 	29
23.52 	21
23.54 	23
23.56 	31
23.58 	12
23.6 	18
23.62 	19
23.64 	27
23.66 	22
23.68 	23
23.7 	26
23.72 	28
23.74 	27
23.76 	23
23.78 	17
23.8 	26
23.82 	25
23.84 	27
23.86 	21
23.88 	26
23.9 	23
23.92 	16
23.94 	23
23.96 	20
23.98 	29
24 	24
24.02 	23
24.04 	25
24.06 	24
24.08 	34
24.1 	31
24.12 	22
24.14 	18
24.16 	23
24.18 	31
24.2 	21
24.22 	29
24.24 	27
24.26 	24
24.28 	25
24.3 	24
24.32 	15
24.34 	27
24.36 	29
24.38 	20
24.4 	26
24.42 	21
24.44 	24
24.46 	15
24.48 	25
24.5 	24
24.52 	23
24.54 	17
24.56 	30
24.58 	20
24.6 	20
24.62 	32
24.64 	30
24.66 	28
24.68 	21
24.7 	32
24.72 	20
24.74 	21
24.76 	17
24.78 	21
24.8 	23
24.82 	17
24.84 	38
24.86 	12
24.88 	30
24.9 	20
24.92 	22
24.94 	27
24.96 	20
24.98 	23
25 	12
25.02 	32
25.04 	18
25.06 	24
25.08 	23
25.1 	36
25.12 	17
25.14 	21
25.16 	27
25.18 	33
25.2 	26
25.22 	24
25.24 	28
25.26 	25
25.28 	26
25.3 	29
25.32 	29
25.34 	24
25.36 	23
25.38 	24
25.4 	22
25.42 	26
25.44 	25
25.46 	34
25.48 	29
25.5 	24
25.52 	19
25.54 	18
25.56 	23
25.58 	26
25.6 	19
25.62 	24
25.64 	19
25.66 	17
25.68 	28
25.7 	35
25.72 	20
25.74 	24
25.76 	23
25.78 	26
25.8 	21
25.82 	29
25.84 	26
25.86 	22
25.88 	22
25.9 	18
25.92 	21
25.94 	19
25.96 	23
25.98 	24
26 	25
26.02 	29
26.04 	26
26.06 	17
26.08 	21
26.1 	22
26.12 	19
26.14 	20
26.16 	19
26.18 	19
26.2 	18
26.22 	21
26.24 	26
26.26 	16
26.28 	20
26.3 	18
26.32 	16
26.34 	26
26.36 	18
26.38 	19
26.4 	25
26.42 	19
26.44 	21
26.46 	20
26.48 	23
26.5 	22
26.52 	13
26.54 	17
26.56 	25
26.58 	20
26.6 	29
26.62 	19
26.64 	25
26.66 	28
26.68 	18
26.7 	25
26.72 	20
26.74 	14
26.76 	26
26.78 	29
26.8 	19
26.82 	17
26.84 	23
26.86 	15
26.88 	24
26.9 	24
26.92 	22
26.94 	23
26.96 	20
26.98 	24
27 	23
27.02 	23
27.04 	36
27.06 	23
27.08 	25
27.1 	22
27.12 	30
27.14 	26
27.16 	14
27.18 	12
27.2 	21
27.22 	28
27.24 	16
27.26 	25
27.28 	25
27.3 	22
27.32 	20
27.34 	20
27.36 	17
27.38 	23
27.4 	16
27.42 	23
27.44 	21
27.46 	26
27.48 	22
27.5 	20
27.52 	24
27.54 	19
27.56 	24
27.58 	27
27.6 	22
27.62 	20
27.64 	25
27.66 	21
27.68 	21
27.7 	25
27.72 	19
27.74 	20
27.76 	25
27.78 	33
27.8 	28
27.82 	15
27.84 	24
27.86 	18
27.88 	17
27.9 	27
27.92 	22
27.94 	11
27.96 	23
27.98 	26
28 	17
28.02 	22
28.04 	25
28.06 	26
28.08 	17
28.1 	17
28.12 	27
28.14 	22
28.16 	14
28.18 	12
28.2 	22
28.22 	13
28.24 	20
28.26 	21
28.28 	22
28.3 	13
28.32 	25
28.34 	25
28.36 	16
28.38 	24
28.4 	28
28.42 	21
28.44 	22
28.46 	23
28.48 	17
28.5 	14
28.52 	16
28.54 	18
28.56 	23
28.58 	28
28.6 	24
28.62 	22
28.64 	17
28.66 	18
28.68 	24
28.7 	14
28.72 	19
28.74 	16
28.76 	12
28.78 	18
28.8 	25
28.82 	23
28.84 	21
28.86 	21
28.88 	17
28.9 	19
28.92 	15
28.94 	27
28.96 	15
28.98 	28
29 	25
29.02 	36
29.04 	20
29.06 	23
29.08 	29
29.1 	24
29.12 	18
29.14 	22
29.16 	18
29.18 	18
29.2 	22
29.22 	24
29.24 	18
29.26 	16
29.28 	25
29.3 	30
29.32 	22
29.34 	23
29.36 	33
29.38 	25
29.4 	23
29.42 	19
29.44 	21
29.46 	28
29.48 	26
29.5 	21
29.52 	23
29.54 	19
29.56 	23
29.58 	22
29.6 	23
29.62 	25
29.64 	28
29.66 	25
29.68 	15
29.7 	19
29.72 	21
29.74 	15
29.76 	14
29.78 	18
29.8 	27
29.82 	24
29.84 	27
29.86 	19
29.88 	21
29.9 	19
29.92 	28
29.94 	24
29.96 	19
29.98 	17
30 	14
30.02 	24
30.04 	19
30.06 	19
30.08 	28
30.1 	28
30.12 	30
30.14 	17
30.16 	28
30.18 	15
30.2 	20
30.22 	30
30.24 	19
30.26 	22
30.28 	28
30.3 	14
30.32 	20
30.34 	21
30.36 	22
30.38 	30
30.4 	17
30.42 	15
30.44 	21
30.46 	11
30.48 	18
30.5 	18
30.52 	27
30.54 	20
30.56 	17
30.58 	33
30.6 	23
30.62 	23
30.64 	22
30.66 	29
30.68 	27
30.7 	36
30.72 	22
30.74 	21
30.76 	22
30.78 	28
30.8 	25
30.82 	24
30.84 	24
30.86 	21
30.88 	23
30.9 	19
30.92 	18
30.94 	20
30.96 	15
30.98 	21
31 	21
31.02 	31
31.04 	20
31.06 	19
31.08 	15
31.1 	18
31.12 	20
31.14 	19
31.16 	20
31.18 	19
31.2 	32
31.22 	27
31.24 	23
31.26 	22
31.28 	21
31.3 	17
31.32 	14
31.34 	17
31.36 	18
31.38 	24
31.4 	13
31.42 	19
31.44 	24
31.46 	16
31.48 	18
31.5 	23
31.52 	13
31.54 	25
31.56 	22
31.58 	18
31.6 	20
31.62 	29
31.64 	21
31.66 	15
31.68 	22
31.7 	17
31.72 	20
31.74 	20
31.76 	23
31.78 	26
31.8 	16
31.82 	22
31.84 	23
31.86 	23
31.88 	23
31.9 	16
31.92 	20
31.94 	15
31.96 	18
31.98 	19
32 	17
32.02 	21
32.04 	19
32.06 	11
32.08 	11
32.1 	18
32.12 	19
32.14 	19
32.16 	14
32.18 	20
32.2 	29
32.22 	16
32.24 	21
32.26 	23
32.28 	19
32.3 	13
32.32 	30
32.34 	18
32.36 	20
32.38 	22
32.4 	16
32.42 	19
32.44 	17
32.46 	16
32.48 	15
32.5 	19
32.52 	22
32.54 	16
32.56 	16
32.58 	21
32.6 	16
32.62 	13
32.64 	18
32.66 	29
32.68 	24
32.7 	22
32.72 	18
32.74 	15
32.76 	17
32.78 	13
32.8 	21
32.82 	27
32.84 	24
32.86 	16
32.88 	15
32.9 	21
32.92 	23
32.94 	20
32.96 	17
32.98 	16
33 	16
33.02 	22
33.04 	21
33.06 	20
33.08 	22
33.1 	20
33.12 	16
33.14 	17
33.16 	19
33.18 	7
33.2 	16
33.22 	16
33.24 	20
33.26 	15
33.28 	22
33.3 	20
33.32 	16
33.34 	16
33.36 	19
33.38 	9
33.4 	15
33.42 	10
33.44 	19
33.46 	19
33.48 	23
33.5 	12
33.52 	21
33.54 	22
33.56 	16
33.58 	26
33.6 	20
33.62 	18
33.64 	18
33.66 	18
33.68 	23
33.7 	24
33.72 	20
33.74 	15
33.76 	17
33.78 	15
33.8 	22
33.82 	12
33.84 	20
33.86 	20
33.88 	19
33.9 	16
33.92 	17
33.94 	21
33.96 	12
33.98 	19
34 	16
34.02 	21
34.04 	29
34.06 	15
34.08 	22
34.1 	20
34.12 	16
34.14 	19
34.16 	19
34.18 	18
34.2 	22
34.22 	21
34.24 	18
34.26 	24
34.28 	12
34.3 	17
34.32 	16
34.34 	23
34.36 	23
34.38 	20
34.4 	22
34.42 	20
34.44 	30
34.46 	35
34.48 	19
34.5 	21
34.52 	19
34.54 	20
34.56 	25
34.58 	18
34.6 	24
34.62 	21
34.64 	28
34.66 	15
34.68 	29
34.7 	15
34.72 	24
34.74 	20
34.76 	24
34.78 	28
34.8 	17
34.82 	21
34.84 	20
34.86 	30
34.88 	18
34.9 	35
34.92 	33
34.94 	25
34.96 	31
34.98 	24
35 	20
35.02 	17
35.04 	35
35.06 	41
35.08 	37
35.1 	37
35.12 	50
35.14 	61
35.16 	59
35.18 	45
35.2 	64
35.22 	57
35.24 	65
35.26 	55
35.28 	74
35.3 	80
35.32 	88
35.34 	85
35.36 	60
35.38 	62
35.4 	65
35.42 	60
35.44 	79
35.46 	64
35.48 	52
35.5 	50
35.52 	26
35.54 	36
35.56 	46
35.58 	45
35.6 	41
35.62 	37
35.64 	24
35.66 	27
35.68 	29
35.7 	37
35.72 	32
35.74 	28
35.76 	27
35.78 	41
35.8 	22
35.82 	26
35.84 	26
35.86 	27
35.88 	28
35.9 	31
35.92 	18
35.94 	19
35.96 	18
35.98 	29
36 	24
36.02 	14
36.04 	28
36.06 	26
36.08 	27
36.1 	21
36.12 	20
36.14 	19
36.16 	26
36.18 	23
36.2 	21
36.22 	17
36.24 	20
36.26 	12
36.28 	22
36.3 	27
36.32 	32
36.34 	24
36.36 	23
36.38 	19
36.4 	22
36.42 	26
36.44 	28
36.46 	22
36.48 	18
36.5 	24
36.52 	17
36.54 	17
36.56 	10
36.58 	21
36.6 	19
36.62 	18
36.64 	12
36.66 	20
36.68 	19
36.7 	29
36.72 	21
36.74 	14
36.76 	27
36.78 	11
36.8 	25
36.82 	30
36.84 	21
36.86 	23
36.88 	13
36.9 	26
36.92 	26
36.94 	33
36.96 	24
36.98 	17
37 	22
37.02 	20
37.04 	27
37.06 	32
37.08 	29
37.1 	21
37.12 	21
37.14 	27
37.16 	21
37.18 	19
37.2 	27
37.22 	18
37.24 	23
37.26 	24
37.28 	23
37.3 	23
37.32 	24
37.34 	23
37.36 	23
37.38 	30
37.4 	29
37.42 	24
37.44 	28
37.46 	14
37.48 	25
37.5 	26
37.52 	25
37.54 	20
37.56 	25
37.58 	23
37.6 	26
37.62 	26
37.64 	36
37.66 	29
37.68 	25
37.7 	29
37.72 	27
37.74 	39
37.76 	27
37.78 	27
37.8 	30
37.82 	36
37.84 	32
37.86 	28
37.88 	32
37.9 	33
37.92 	49
37.94 	45
37.96 	35
37.98 	45
38 	45
38.02 	57
38.04 	60
38.06 	55
38.08 	71
38.1 	83
38.12 	93
38.14 	134
38.16 	154
38.18 	219
38.2 	344
38.22 	467
38.24 	596
38.26 	598
38.28 	781
38.3 	789
38.32 	802
38.34 	820
38.36 	780
38.38 	709
38.4 	628
38.42 	545
38.44 	512
38.46 	446
38.48 	351
38.5 	314
38.52 	229
38.54 	182
38.56 	170
38.58 	151
38.6 	102
38.62 	111
38.64 	76
38.66 	65
38.68 	76
38.7 	68
38.72 	50
38.74 	55
38.76 	55
38.78 	48
38.8 	49
38.82 	40
38.84 	40
38.86 	43
38.88 	49
38.9 	41
38.92 	37
38.94 	32
38.96 	34
38.98 	37
39 	40
39.02 	46
39.04 	40
39.06 	51
39.08 	38
39.1 	44
39.12 	44
39.14 	47
39.16 	38
39.18 	41
39.2 	48
39.22 	47
39.24 	47
39.26 	39
39.28 	40
39.3 	36
39.32 	45
39.34 	38
39.36 	40
39.38 	27
39.4 	45
39.42 	49
39.44 	43
39.46 	57
39.48 	41
39.5 	31
39.52 	38
39.54 	28
39.56 	33
39.58 	31
39.6 	37
39.62 	26
39.64 	38
39.66 	34
39.68 	36
39.7 	26
39.72 	41
39.74 	28
39.76 	34
39.78 	46
39.8 	40
39.82 	37
39.84 	40
39.86 	55
39.88 	46
39.9 	63
39.92 	61
39.94 	45
39.96 	55
39.98 	54
40 	57
40.02 	59
40.04 	55
40.06 	90
40.08 	97
40.1 	60
40.12 	99
40.14 	92
40.16 	96
40.18 	117
40.2 	121
40.22 	146
40.24 	171
40.26 	199
40.28 	210
40.3 	210
40.32 	249
40.34 	224
40.36 	265
40.38 	228
40.4 	252
40.42 	224
40.44 	223
40.46 	221
40.48 	180
40.5 	180
40.52 	167
40.54 	147
40.56 	146
40.58 	100
40.6 	104
40.62 	85
40.64 	103
40.66 	71
40.68 	86
40.7 	73
40.72 	53
40.74 	69
40.76 	63
40.78 	52
40.8 	58
40.82 	49
40.84 	39
40.86 	45
40.88 	36
40.9 	48
40.92 	43
40.94 	36
40.96 	26
40.98 	26
41 	28
41.02 	33
41.04 	32
41.06 	26
41.08 	32
41.1 	30
41.12 	22
41.14 	28
41.16 	24
41.18 	29
41.2 	24
41.22 	31
41.24 	28
41.26 	26
41.28 	24
41.3 	23
41.32 	19
41.34 	24
41.36 	22
41.38 	25
41.4 	24
41.42 	29
41.44 	18
41.46 	20
41.48 	19
41.5 	28
41.52 	21
41.54 	23
41.56 	31
41.58 	27
41.6 	17
41.62 	23
41.64 	19
41.66 	17
41.68 	16
41.7 	23
41.72 	19
41.74 	24
41.76 	26
41.78 	25
41.8 	17
41.82 	28
41.84 	16
41.86 	19
41.88 	31
41.9 	19
41.92 	17
41.94 	21
41.96 	21
41.98 	23
42 	15
42.02 	19
42.04 	14
42.06 	26
42.08 	18
42.1 	28
42.12 	16
42.14 	22
42.16 	13
42.18 	24
42.2 	19
42.22 	17
42.24 	20
42.26 	16
42.28 	23
42.3 	8
42.32 	25
42.34 	13
42.36 	22
42.38 	18
42.4 	25
42.42 	10
42.44 	23
42.46 	16
42.48 	23
42.5 	20
42.52 	19
42.54 	15
42.56 	26
42.58 	14
42.6 	18
42.62 	20
42.64 	28
42.66 	17
42.68 	13
42.7 	21
42.72 	29
42.74 	20
42.76 	18
42.78 	20
42.8 	17
42.82 	17
42.84 	20
42.86 	23
42.88 	23
42.9 	25
42.92 	22
42.94 	13
42.96 	37
42.98 	19
43 	25
43.02 	18
43.04 	19
43.06 	27
43.08 	20
43.1 	25
43.12 	22
43.14 	17
43.16 	7
43.18 	23
43.2 	21
43.22 	17
43.24 	19
43.26 	18
43.28 	10
43.3 	20
43.32 	18
43.34 	18
43.36 	23
43.38 	23
43.4 	17
43.42 	21
43.44 	17
43.46 	21
43.48 	21
43.5 	21
43.52 	18
43.54 	24
43.56 	16
43.58 	17
43.6 	12
43.62 	22
43.64 	15
43.66 	18
43.68 	23
43.7 	17
43.72 	19
43.74 	17
43.76 	19
43.78 	23
43.8 	22
43.82 	20
43.84 	41
43.86 	22
43.88 	20
43.9 	25
43.92 	20
43.94 	40
43.96 	35
43.98 	22
44 	37
44.02 	31
44.04 	37
44.06 	31
44.08 	24
44.1 	27
44.12 	29
44.14 	24
44.16 	25
44.18 	31
44.2 	36
44.22 	26
44.24 	26
44.26 	43
44.28 	58
44.3 	46
44.32 	47
44.34 	50
44.36 	67
44.38 	60
44.4 	85
44.42 	121
44.44 	149
44.46 	186
44.48 	195
44.5 	179
44.52 	191
44.54 	187
44.56 	182
44.58 	166
44.6 	151
44.62 	151
44.64 	125
44.66 	122
44.68 	118
44.7 	89
44.72 	69
44.74 	55
44.76 	57
44.78 	45
44.8 	36
44.82 	32
44.84 	30
44.86 	22
44.88 	26
44.9 	19
44.92 	26
44.94 	23
44.96 	21
44.98 	18
45 	19
45.02 	20
45.04 	19
45.06 	24
45.08 	17
45.1 	22
45.12 	15
45.14 	25
45.16 	22
45.18 	18
45.2 	26
45.22 	15
45.24 	23
45.26 	22
45.28 	9
45.3 	9
45.32 	21
45.34 	16
45.36 	18
45.38 	21
45.4 	13
45.42 	14
45.44 	18
45.46 	15
45.48 	18
45.5 	20
45.52 	22
45.54 	13
45.56 	12
45.58 	24
45.6 	15
45.62 	10
45.64 	14
45.66 	21
45.68 	21
45.7 	15
45.72 	17
45.74 	18
45.76 	14
45.78 	19
45.8 	21
45.82 	17
45.84 	23
45.86 	19
45.88 	14
45.9 	22
45.92 	17
45.94 	17
45.96 	12
45.98 	20
46 	18
46.02 	15
46.04 	26
46.06 	22
46.08 	13
46.1 	17
46.12 	19
46.14 	13
46.16 	18
46.18 	15
46.2 	15
46.22 	18
46.24 	15
46.26 	20
46.28 	18
46.3 	16
46.32 	14
46.34 	20
46.36 	18
46.38 	18
46.4 	10
46.42 	16
46.44 	19
46.46 	15
46.48 	18
46.5 	26
46.52 	13
46.54 	14
46.56 	21
46.58 	11
46.6 	14
46.62 	17
46.64 	13
46.66 	18
46.68 	16
46.7 	19
46.72 	15
46.74 	20
46.76 	20
46.78 	11
46.8 	9
46.82 	17
46.84 	16
46.86 	12
46.88 	14
46.9 	19
46.92 	14
46.94 	16
46.96 	9
46.98 	16
47 	14
47.02 	15
47.04 	20
47.06 	17
47.08 	13
47.1 	12
47.12 	15
47.14 	15
47.16 	18
47.18 	14
47.2 	16
47.22 	10
47.24 	13
47.26 	16
47.28 	17
47.3 	22
47.32 	15
47.34 	16
47.36 	14
47.38 	17
47.4 	21
47.42 	19
47.44 	15
47.46 	17
47.48 	10
47.5 	19
47.52 	12
47.54 	12
47.56 	13
47.58 	14
47.6 	16
47.62 	7
47.64 	15
47.66 	13
47.68 	16
47.7 	19
47.72 	15
47.74 	7
47.76 	15
47.78 	15
47.8 	21
47.82 	8
47.84 	11
47.86 	17
47.88 	17
47.9 	20
47.92 	16
47.94 	8
47.96 	17
47.98 	17
48 	13
48.02 	14
48.04 	5
48.06 	19
48.08 	18
48.1 	20
48.12 	10
48.14 	13
48.16 	12
48.18 	14
48.2 	13
48.22 	13
48.24 	10
48.26 	13
48.28 	12
48.3 	12
48.32 	11
48.34 	15
48.36 	9
48.38 	18
48.4 	7
48.42 	10
48.44 	15
48.46 	22
48.48 	8
48.5 	9
48.52 	13
48.54 	18
48.56 	18
48.58 	8
48.6 	16
48.62 	17
48.64 	14
48.66 	11
48.68 	17
48.7 	10
48.72 	14
48.74 	11
48.76 	14
48.78 	15
48.8 	12
48.82 	23
48.84 	8
48.86 	14
48.88 	8
48.9 	19
48.92 	18
48.94 	8
48.96 	12
48.98 	9
49 	16
49.02 	10
49.04 	18
49.06 	13
49.08 	17
49.1 	14
49.12 	16
49.14 	11
49.16 	16
49.18 	11
49.2 	13
49.22 	13
49.24 	12
49.26 	12
49.28 	10
49.3 	15
49.32 	10
49.34 	16
49.36 	13
49.38 	13
49.4 	12
49.42 	13
49.44 	12
49.46 	16
49.48 	18
49.5 	13
49.52 	9
49.54 	11
49.56 	15
49.58 	13
49.6 	16
49.62 	11
49.64 	10
49.66 	13
49.68 	14
49.7 	10
49.72 	11
49.74 	7
49.76 	9
49.78 	9
49.8 	14
49.82 	15
49.84 	13
49.86 	13
49.88 	12
49.9 	15
49.92 	10
49.94 	19
49.96 	12
49.98 	14
50 	11
50.02 	9
50.04 	11
50.06 	18
50.08 	8
50.1 	16
50.12 	15
50.14 	14
50.16 	19
50.18 	11
50.2 	18
50.22 	14
50.24 	21
50.26 	11
50.28 	10
50.3 	19
50.32 	18
50.34 	14
50.36 	19
50.38 	11
50.4 	13
50.42 	16
50.44 	17
50.46 	14
50.48 	12
50.5 	15
50.52 	14
50.54 	6
50.56 	15
50.58 	17
50.6 	10
50.62 	10
50.64 	11
50.66 	9
50.68 	10
50.7 	11
50.72 	13
50.74 	21
50.76 	16
50.78 	8
50.8 	15
50.82 	14
50.84 	11
50.86 	13
50.88 	9
50.9 	9
50.92 	11
50.94 	18
50.96 	8
50.98 	14
51 	23
51.02 	14
51.04 	19
51.06 	13
51.08 	13
51.1 	11
51.12 	20
51.14 	8
51.16 	13
51.18 	8
51.2 	20
51.22 	15
51.24 	11
51.26 	16
51.28 	16
51.3 	6
51.32 	17
51.34 	13
51.36 	14
51.38 	18
51.4 	12
51.42 	10
51.44 	12
51.46 	18
51.48 	7
51.5 	10
51.52 	10
51.54 	10
51.56 	16
51.58 	8
51.6 	15
51.62 	9
51.64 	12
51.66 	10
51.68 	12
51.7 	15
51.72 	11
51.74 	15
51.76 	12
51.78 	19
51.8 	22
51.82 	16
51.84 	11
51.86 	10
51.88 	8
51.9 	9
51.92 	26
51.94 	7
51.96 	13
51.98 	13
52 	18
52.02 	9
52.04 	14
52.06 	8
52.08 	10
52.1 	17
52.12 	15
52.14 	14
52.16 	14
52.18 	18
52.2 	13
52.22 	23
52.24 	9
52.26 	12
52.28 	16
52.3 	15
52.32 	19
52.34 	13
52.36 	17
52.38 	14
52.4 	8
52.42 	8
52.44 	13
52.46 	13
52.48 	15
52.5 	18
52.52 	16
52.54 	17
52.56 	12
52.58 	9
52.6 	15
52.62 	16
52.64 	10
52.66 	18
52.68 	15
52.7 	13
52.72 	15
52.74 	9
52.76 	9
52.78 	18
52.8 	15
52.82 	13
52.84 	15
52.86 	14
52.88 	16
52.9 	25
52.92 	18
52.94 	16
52.96 	18
52.98 	16
53 	21
53.02 	15
53.04 	29
53.06 	20
53.08 	37
53.1 	29
53.12 	26
53.14 	45
53.16 	36
53.18 	29
53.2 	42
53.22 	41
53.24 	46
53.26 	54
53.28 	32
53.3 	49
53.32 	35
53.34 	44
53.36 	36
53.38 	26
53.4 	31
53.42 	29
53.44 	28
53.46 	21
53.48 	24
53.5 	28
53.52 	22
53.54 	22
53.56 	22
53.58 	22
53.6 	14
53.62 	22
53.64 	21
53.66 	17
53.68 	16
53.7 	20
53.72 	14
53.74 	17
53.76 	15
53.78 	19
53.8 	13
53.82 	26
53.84 	20
53.86 	14
53.88 	13
53.9 	20
53.92 	20
53.94 	11
53.96 	8
53.98 	9
54 	21
54.02 	12
54.04 	16
54.06 	14
54.08 	13
54.1 	9
54.12 	9
54.14 	19
54.16 	16
54.18 	10
54.2 	13
54.22 	11
54.24 	12
54.26 	18
54.28 	14
54.3 	11
54.32 	12
54.34 	13
54.36 	13
54.38 	16
54.4 	16
54.42 	12
54.44 	13
54.46 	18
54.48 	19
54.5 	10
54.52 	14
54.54 	12
54.56 	14
54.58 	12
54.6 	12
54.62 	18
54.64 	15
54.66 	11
54.68 	13
54.7 	11
54.72 	11
54.74 	3
54.76 	17
54.78 	17
54.8 	16
54.82 	11
54.84 	15
54.86 	12
54.88 	13
54.9 	12
54.92 	11
54.94 	13
54.96 	9
54.98 	18
55 	16
55.02 	14
55.04 	11
55.06 	6
55.08 	7
55.1 	15
55.12 	21
55.14 	8
55.16 	8
55.18 	11
55.2 	8
55.22 	15
55.24 	10
55.26 	16
55.28 	10
55.3 	12
55.32 	15
55.34 	13
55.36 	16
55.38 	12
55.4 	12
55.42 	13
55.44 	8
55.46 	12
55.48 	10
55.5 	12
55.52 	12
55.54 	19
55.56 	19
55.58 	15
55.6 	13
55.62 	15
55.64 	11
55.66 	11
55.68 	13
55.7 	18
55.72 	14
55.74 	9
55.76 	15
55.78 	12
55.8 	18
55.82 	11
55.84 	11
55.86 	15
55.88 	13
55.9 	8
55.92 	13
55.94 	14
55.96 	11
55.98 	7
56 	15
56.02 	12
56.04 	11
56.06 	14
56.08 	12
56.1 	13
56.12 	11
56.14 	17
56.16 	11
56.18 	10
56.2 	14
56.22 	15
56.24 	12
56.26 	19
56.28 	11
56.3 	11
56.32 	11
56.34 	14
56.36 	12
56.38 	9
56.4 	10
56.42 	10
56.44 	13
56.46 	13
56.48 	11
56.5 	13
56.52 	17
56.54 	12
56.56 	14
56.58 	16
56.6 	13
56.62 	13
56.64 	12
56.66 	11
56.68 	10
56.7 	8
56.72 	9
56.74 	12
56.76 	12
56.78 	17
56.8 	15
56.82 	11
56.84 	13
56.86 	10
56.88 	14
56.9 	17
56.92 	9
56.94 	9
56.96 	13
56.98 	14
57 	11
57.02 	13
57.04 	10
57.06 	13
57.08 	13
57.1 	12
57.12 	19
57.14 	10
57.16 	15
57.18 	10
57.2 	12
57.22 	13
57.24 	9
57.26 	12
57.28 	7
57.3 	11
57.32 	12
57.34 	9
57.36 	7
57.38 	18
57.4 	9
57.42 	10
57.44 	8
57.46 	13
57.48 	18
57.5 	17
57.52 	17
57.54 	10
57.56 	14
57.58 	16
57.6 	12
57.62 	8
57.64 	10
57.66 	19
57.68 	16
57.7 	9
57.72 	11
57.74 	12
57.76 	12
57.78 	7
57.8 	16
57.82 	16
57.84 	17
57.86 	11
57.88 	9
57.9 	16
57.92 	10
57.94 	8
57.96 	12
57.98 	12
58 	3
58.02 	14
58.04 	15
58.06 	10
58.08 	14
58.1 	8
58.12 	16
58.14 	15
58.16 	7
58.18 	14
58.2 	6
58.22 	11
58.24 	8
58.26 	10
58.28 	8
58.3 	14
58.32 	8
58.34 	14
58.36 	15
58.38 	9
58.4 	7
58.42 	13
58.44 	20
58.46 	14
58.48 	7
58.5 	11
58.52 	18
58.54 	6
58.56 	9
58.58 	14
58.6 	15
58.62 	17
58.64 	15
58.66 	11
58.68 	8
58.7 	9
58.72 	13
58.74 	17
58.76 	10
58.78 	11
58.8 	20
58.82 	13
58.84 	10
58.86 	16
58.88 	13
58.9 	14
58.92 	9
58.94 	14
58.96 	12
58.98 	10
59 	8
59.02 	15
59.04 	16
59.06 	12
59.08 	10
59.1 	13
59.12 	15
59.14 	13
59.16 	10
59.18 	12
59.2 	5
59.22 	12
59.24 	10
59.26 	20
59.28 	12
59.3 	12
59.32 	9
59.34 	9
59.36 	10
59.38 	9
59.4 	11
59.42 	15
59.44 	10
59.46 	11
59.48 	4
59.5 	10
59.52 	10
59.54 	14
59.56 	10
59.58 	8
59.6 	8
59.62 	10
59.64 	10
59.66 	17
59.68 	10
59.7 	6
59.72 	16
59.74 	14
59.76 	8
59.78 	12
59.8 	17
59.82 	8
59.84 	12
59.86 	14
59.88 	16
59.9 	13
59.92 	7
59.94 	10
59.96 	10
59.98 	9
60 	12
60.02 	18
60.04 	13
60.06 	11
60.08 	10
60.1 	14
60.12 	7
60.14 	11
60.16 	8
60.18 	10
60.2 	12
60.22 	7
60.24 	14
60.26 	15
60.28 	14
60.3 	12
60.32 	7
60.34 	7
60.36 	13
60.38 	10
60.4 	9
60.42 	8
60.44 	12
60.46 	15
60.48 	8
60.5 	15
60.52 	13
60.54 	12
60.56 	13
60.58 	7
60.6 	16
60.62 	6
60.64 	20
60.66 	14
60.68 	17
60.7 	14
60.72 	9
60.74 	8
60.76 	16
60.78 	8
60.8 	20
60.82 	10
60.84 	15
60.86 	8
60.88 	12
60.9 	7
60.92 	9
60.94 	7
60.96 	9
60.98 	15
61 	10
61.02 	13
61.04 	12
61.06 	14
61.08 	14
61.1 	11
61.12 	5
61.14 	7
61.16 	10
61.18 	9
61.2 	20
61.22 	15
61.24 	7
61.26 	8
61.28 	15
61.3 	16
61.32 	7
61.34 	13
61.36 	13
61.38 	13
61.4 	11
61.42 	17
61.44 	21
61.46 	13
61.48 	12
61.5 	15
61.52 	14
61.54 	13
61.56 	14
61.58 	13
61.6 	14
61.62 	11
61.64 	14
61.66 	17
61.68 	11
61.7 	10
61.72 	19
61.74 	10
61.76 	16
61.78 	13
61.8 	8
61.82 	9
61.84 	6
61.86 	14
61.88 	13
61.9 	8
61.92 	12
61.94 	12
61.96 	16
61.98 	11
62 	12
62.02 	14
62.04 	10
62.06 	14
62.08 	8
62.1 	14
62.12 	7
62.14 	12
62.16 	10
62.18 	9
62.2 	18
62.22 	15
62.24 	12
62.26 	12
62.28 	17
62.3 	12
62.32 	14
62.34 	12
62.36 	13
62.38 	13
62.4 	18
62.42 	9
62.44 	12
62.46 	16
62.48 	15
62.5 	18
62.52 	13
62.54 	20
62.56 	18
62.58 	16
62.6 	22
62.62 	20
62.64 	17
62.66 	10
62.68 	15
62.7 	17
62.72 	18
62.74 	12
62.76 	14
62.78 	19
62.8 	21
62.82 	18
62.84 	16
62.86 	13
62.88 	14
62.9 	23
62.92 	16
62.94 	11
62.96 	17
62.98 	18
63 	19
63.02 	21
63.04 	21
63.06 	22
63.08 	19
63.1 	17
63.12 	25
63.14 	16
63.16 	25
63.18 	21
63.2 	15
63.22 	31
63.24 	27
63.26 	28
63.28 	25
63.3 	28
63.32 	33
63.34 	30
63.36 	45
63.38 	34
63.4 	41
63.42 	36
63.44 	34
63.46 	41
63.48 	37
63.5 	35
63.52 	43
63.54 	35
63.56 	28
63.58 	41
63.6 	35
63.62 	33
63.64 	27
63.66 	33
63.68 	28
63.7 	24
63.72 	32
63.74 	23
63.76 	17
63.78 	22
63.8 	27
63.82 	28
63.84 	31
63.86 	24
63.88 	17
63.9 	14
63.92 	22
63.94 	15
63.96 	12
63.98 	16
64 	15
64.02 	20
64.04 	17
64.06 	17
64.08 	7
64.1 	15
64.12 	19
64.14 	22
64.16 	14
64.18 	19
64.2 	11
64.22 	15
64.24 	11
64.26 	11
64.28 	15
64.3 	19
64.32 	17
64.34 	20
64.36 	20
64.38 	17
64.4 	23
64.42 	19
64.44 	10
64.46 	18
64.48 	16
64.5 	12
64.52 	12
64.54 	18
64.56 	27
64.58 	25
64.6 	34
64.62 	28
64.64 	30
64.66 	29
64.68 	33
64.7 	45
64.72 	48
64.74 	55
64.76 	69
64.78 	119
64.8 	153
64.82 	173
64.84 	191
64.86 	198
64.88 	185
64.9 	153
64.92 	171
64.94 	120
64.96 	112
64.98 	115
65 	122
65.02 	137
65.04 	115
65.06 	103
65.08 	114
65.1 	79
65.12 	70
65.14 	69
65.16 	50
65.18 	36
65.2 	29
65.22 	21
65.24 	26
65.26 	16
65.28 	23
65.3 	17
65.32 	21
65.34 	17
65.36 	14
65.38 	10
65.4 	19
65.42 	18
65.44 	10
65.46 	19
65.48 	9
65.5 	6
65.52 	15
65.54 	9
65.56 	22
65.58 	15
65.6 	15
65.62 	10
65.64 	14
65.66 	10
65.68 	7
65.7 	14
65.72 	13
65.74 	11
65.76 	14
65.78 	16
65.8 	7
65.82 	12
65.84 	9
65.86 	10
65.88 	21
65.9 	6
65.92 	15
65.94 	7
65.96 	7
65.98 	19
66 	7
66.02 	13
66.04 	12
66.06 	11
66.08 	11
66.1 	13
66.12 	14
66.14 	11
66.16 	11
66.18 	19
66.2 	11
66.22 	14
66.24 	14
66.26 	5
66.28 	11
66.3 	13
66.32 	13
66.34 	13
66.36 	10
66.38 	11
66.4 	7
66.42 	15
66.44 	15
66.46 	10
66.48 	13
66.5 	11
66.52 	7
66.54 	12
66.56 	21
66.58 	8
66.6 	10
66.62 	13
66.64 	14
66.66 	10
66.68 	12
66.7 	11
66.72 	8
66.74 	20
66.76 	18
66.78 	10
66.8 	13
66.82 	7
66.84 	8
66.86 	15
66.88 	4
66.9 	18
66.92 	18
66.94 	13
66.96 	11
66.98 	15
67 	12
67.02 	11
67.04 	12
67.06 	8
67.08 	17
67.1 	5
67.12 	6
67.14 	14
67.16 	18
67.18 	2
67.2 	14
67.22 	8
67.24 	11
67.26 	14
67.28 	9
67.3 	11
67.32 	10
67.34 	9
67.36 	13
67.38 	9
67.4 	10
67.42 	9
67.44 	10
67.46 	9
67.48 	9
67.5 	14
67.52 	9
67.54 	16
67.56 	20
67.58 	12
67.6 	6
67.62 	11
67.64 	9
67.66 	5
67.68 	14
67.7 	11
67.72 	9
67.74 	8
67.76 	12
67.78 	10
67.8 	9
67.82 	10
67.84 	12
67.86 	9
67.88 	9
67.9 	12
67.92 	16
67.94 	14
67.96 	11
67.98 	12
68 	7
68.02 	14
68.04 	11
68.06 	12
68.08 	18
68.1 	18
68.12 	16
68.14 	14
68.16 	14
68.18 	13
68.2 	14
68.22 	15
68.24 	6
68.26 	14
68.28 	10
68.3 	10
68.32 	6
68.34 	11
68.36 	12
68.38 	7
68.4 	4
68.42 	7
68.44 	7
68.46 	9
68.48 	12
68.5 	13
68.52 	10
68.54 	13
68.56 	10
68.58 	12
68.6 	10
68.62 	10
68.64 	11
68.66 	9
68.68 	12
68.7 	12
68.72 	11
68.74 	9
68.76 	7
68.78 	9
68.8 	16
68.82 	14
68.84 	11
68.86 	12
68.88 	13
68.9 	9
68.92 	7
68.94 	7
68.96 	6
68.98 	8
69 	12
69.02 	13
69.04 	11
69.06 	14
69.08 	8
69.1 	12
69.12 	15
69.14 	14
69.16 	15
69.18 	9
69.2 	15
69.22 	14
69.24 	15
69.26 	11
69.28 	13
69.3 	11
69.32 	11
69.34 	11
69.36 	4
69.38 	18
69.4 	11
69.42 	9
69.44 	12
69.46 	8
69.48 	12
69.5 	12
69.52 	7
69.54 	12
69.56 	3
69.58 	10
69.6 	17
69.62 	10
69.64 	15
69.66 	5
69.68 	14
69.7 	11
69.72 	12
69.74 	13
69.76 	15
69.78 	11
69.8 	13
69.82 	7
69.84 	8
69.86 	12
69.88 	8
69.9 	8
69.92 	12
69.94 	13
69.96 	5
69.98 	13
70 	7
70.02 	11
70.04 	14
70.06 	15
70.08 	11
70.1 	8
70.12 	15
70.14 	8
70.16 	10
70.18 	11
70.2 	9
70.22 	10
70.24 	10
70.26 	10
70.28 	11
70.3 	9
70.32 	7
70.34 	16
70.36 	9
70.38 	12
70.4 	14
70.42 	13
70.44 	10
70.46 	11
70.48 	18
70.5 	21
70.52 	15
70.54 	16
70.56 	12
70.58 	22
70.6 	18
70.62 	18
70.64 	16
70.66 	16
70.68 	21
70.7 	24
70.72 	25
70.74 	29
70.76 	32
70.78 	25
70.8 	30
70.82 	37
70.84 	29
70.86 	29
70.88 	41
70.9 	39
70.92 	32
70.94 	41
70.96 	42
70.98 	48
71 	45
71.02 	50
71.04 	38
71.06 	42
71.08 	32
71.1 	46
71.12 	31
71.14 	30
71.16 	28
71.18 	35
71.2 	31
71.22 	37
71.24 	37
71.26 	25
71.28 	25
71.3 	23
71.32 	22
71.34 	18
71.36 	15
71.38 	28
71.4 	16
71.42 	24
71.44 	22
71.46 	23
71.48 	17
71.5 	22
71.52 	24
71.54 	10
71.56 	7
71.58 	11
71.6 	18
71.62 	23
71.64 	19
71.66 	12
71.68 	8
71.7 	18
71.72 	11
71.74 	25
71.76 	19
71.78 	13
71.8 	19
71.82 	16
71.84 	15
71.86 	9
71.88 	15
71.9 	19
71.92 	9
71.94 	12
71.96 	8
71.98 	9
72 	17
72.02 	15
72.04 	12
72.06 	9
72.08 	14
72.1 	10
72.12 	14
72.14 	11
72.16 	15
72.18 	13
72.2 	13
72.22 	11
72.24 	9
72.26 	16
72.28 	12
72.3 	10
72.32 	14
72.34 	15
72.36 	13
72.38 	7
72.4 	8
72.42 	12
72.44 	13
72.46 	14
72.48 	9
72.5 	13
72.52 	6
72.54 	8
72.56 	14
72.58 	11
72.6 	16
72.62 	4
72.64 	13
72.66 	9
72.68 	8
72.7 	8
72.72 	14
72.74 	10
72.76 	7
72.78 	12
72.8 	4
72.82 	8
72.84 	10
72.86 	12
72.88 	11
72.9 	13
72.92 	5
72.94 	8
72.96 	11
72.98 	9
73 	7
73.02 	12
73.04 	11
73.06 	13
73.08 	7
73.1 	8
73.12 	10
73.14 	15
73.16 	11
73.18 	10
73.2 	19
73.22 	10
73.24 	13
73.26 	12
73.28 	7
73.3 	7
73.32 	15
73.34 	11
73.36 	6
73.38 	9
73.4 	7
73.42 	10
73.44 	8
73.46 	14
73.48 	14
73.5 	10
73.52 	15
73.54 	11
73.56 	9
73.58 	7
73.6 	19
73.62 	9
73.64 	11
73.66 	14
73.68 	9
73.7 	16
73.72 	8
73.74 	10
73.76 	13
73.78 	9
73.8 	9
73.82 	16
73.84 	8
73.86 	12
73.88 	12
73.9 	13
73.92 	9
73.94 	12
73.96 	13
73.98 	11
74 	7
74.02 	8
74.04 	15
74.06 	13
74.08 	10
74.1 	13
74.12 	11
74.14 	12
74.16 	15
74.18 	14
74.2 	12
74.22 	9
74.24 	15
74.26 	12
74.28 	15
74.3 	12
74.32 	8
74.34 	10
74.36 	9
74.38 	13
74.4 	18
74.42 	12
74.44 	11
74.46 	16
74.48 	10
74.5 	17
74.52 	15
74.54 	14
74.56 	5
74.58 	10
74.6 	13
74.62 	13
74.64 	15
74.66 	15
74.68 	14
74.7 	14
74.72 	10
74.74 	19
74.76 	9
74.78 	11
74.8 	16
74.82 	4
74.84 	16
74.86 	12
74.88 	15
74.9 	12
74.92 	9
74.94 	14
74.96 	7
74.98 	20
75 	9
75.02 	12
75.04 	16
75.06 	13
75.08 	15
75.1 	11
75.12 	10
75.14 	9
75.16 	12
75.18 	12
75.2 	13
75.22 	10
75.24 	10
75.26 	13
75.28 	7
75.3 	16
75.32 	8
75.34 	11
75.36 	14
75.38 	7
75.4 	9
75.42 	8
75.44 	13
75.46 	7
75.48 	18
75.5 	15
75.52 	9
75.54 	11
75.56 	10
75.58 	9
75.6 	12
75.62 	18
75.64 	13
75.66 	13
75.68 	13
75.7 	9
75.72 	17
75.74 	13
75.76 	18
75.78 	10
75.8 	11
75.82 	17
75.84 	16
75.86 	12
75.88 	20
75.9 	11
75.92 	14
75.94 	11
75.96 	15
75.98 	12
76 	13
76.02 	13
76.04 	9
76.06 	16
76.08 	17
76.1 	21
76.12 	6
76.14 	12
76.16 	13
76.18 	13
76.2 	16
76.22 	11
76.24 	10
76.26 	10
76.28 	17
76.3 	18
76.32 	8
76.34 	15
76.36 	15
76.38 	21
76.4 	26
76.42 	19
76.44 	22
76.46 	20
76.48 	26
76.5 	23
76.52 	16
76.54 	18
76.56 	18
76.58 	21
76.6 	29
76.62 	28
76.64 	30
76.66 	25
76.68 	20
76.7 	18
76.72 	25
76.74 	29
76.76 	28
76.78 	22
76.8 	30
76.82 	27
76.84 	29
76.86 	29
76.88 	28
76.9 	32
76.92 	21
76.93999 	17
76.96 	29
76.98 	27
77 	25
77.02 	26
77.04 	27
77.06 	16
77.08 	27
77.1 	22
77.12 	22
77.14 	19
77.16 	22
77.18 	21
77.2 	27
77.22 	17
77.24 	28
77.26 	24
77.28 	17
77.3 	18
77.32 	23
77.34 	20
77.36 	11
77.38 	18
77.4 	22
77.42 	19
77.43999 	20
77.46 	15
77.48 	19
77.5 	23
77.52 	19
77.54 	17
77.56 	19
77.58 	22
77.6 	24
77.62 	13
77.64 	23
77.66 	32
77.68 	19
77.7 	25
77.72 	25
77.74 	16
77.76 	18
77.78 	18
77.8 	19
77.82 	34
77.84 	41
77.86 	50
77.88 	60
77.9 	71
77.92 	78
77.93999 	103
77.96 	85
77.98 	117
78 	110
78.02 	119
78.04 	80
78.06 	81
78.08 	74
78.1 	61
78.12 	59
78.14 	63
78.16 	63
78.18 	70
78.2 	80
78.22 	82
78.24 	54
78.26 	48
78.28 	51
78.3 	43
78.32 	33
78.34 	32
78.36 	22
78.38 	23
78.4 	21
78.42 	14
78.43999 	16
78.46 	26
78.48 	13
78.5 	23
78.52 	21
78.54 	18
78.56 	17
78.58 	12
78.6 	19
78.62 	18
78.64 	16
78.66 	18
78.68 	15
78.7 	5
78.72 	17
78.74 	17
78.76 	16
78.78 	13
78.8 	17
78.82 	9
78.84 	11
78.86 	8
78.88 	13
78.9 	11
78.92 	14
78.93999 	10
78.96 	17
78.98 	14
79 	16
79.02 	13
79.04 	11
79.06 	19
79.08 	6
79.1 	9
79.12 	14
79.14 	10
79.16 	8
79.18 	15
79.2 	11
79.22 	7
79.24 	16
79.26 	9
79.28 	11
79.3 	15
79.32 	15
79.34 	10
79.36 	17
79.38 	12
79.4 	12
79.42 	8
79.43999 	16
79.46 	13
79.48 	9
79.5 	6
79.52 	11
79.54 	7
79.56 	10
79.58 	10
79.6 	10
79.62 	14
79.64 	11
79.66 	9
79.68 	10
79.7 	14
79.72 	11
79.74 	7
79.76 	10
79.78 	8
79.8 	8
79.82 	13
79.84 	12
79.86 	7
79.88 	6
79.9 	9
79.92 	14
79.93999 	11
79.96 	11
79.98 	9
80 	12
80.02 	9
80.04 	6
80.06 	4
80.08 	8
80.1 	7
80.12 	13
80.14 	16
80.16 	12
80.18 	11
80.2 	20
80.22 	11
80.24 	9
80.26 	11
80.28 	10
80.3 	10
80.32 	9
80.34 	15
80.36 	10
80.38 	9
80.4 	7
80.42 	8
80.43999 	12
80.46 	8
80.48 	13
80.5 	10
80.52 	11
80.54 	14
80.56 	9
80.58 	11
80.6 	16
80.62 	13
80.64 	8
80.66 	6
80.68 	9
80.7 	8
80.72 	7
80.74 	10
80.76 	5
80.78 	14
80.8 	12
80.82 	14
80.84 	14
80.86 	11
80.88 	7
80.9 	12
80.92 	12
80.93999 	8
80.96 	7
80.98 	12
81 	14
81.02 	10
81.04 	12
81.06 	8
81.08 	11
81.1 	14
81.12 	12
81.14 	15
81.16 	9
81.18 	8
81.2 	10
81.22 	11
81.24 	16
81.26 	8
81.28 	8
81.3 	12
81.32 	10
81.34 	10
81.36 	10
81.38 	15
81.4 	13
81.42 	5
81.43999 	8
81.46 	21
81.48 	9
81.5 	12
81.52 	13
81.54 	9
81.56 	11
81.58 	2
81.6 	12
81.62 	8
81.64 	10
81.66 	8
81.68 	12
81.7 	16
81.72 	3
81.74 	7
81.76 	15
81.78 	14
81.8 	9
81.82 	15
81.84 	9
81.86 	9
81.88 	13
81.9 	14
81.92 	17
81.93999 	10
81.96 	13
81.98 	16
82 	11
82.02 	23
82.04 	15
82.06 	9
82.08 	24
82.1 	16
82.12 	26
82.14 	36
82.16 	40
82.18 	38
82.2 	32
82.22 	30
82.24 	26
82.26 	19
82.28 	18
82.3 	15
82.32 	17
82.34 	20
82.36 	29
82.38 	22
82.4 	30
82.42 	24
82.43999 	31
82.46 	29
82.48 	25
82.5 	19
82.52 	22
82.54 	14
82.56 	14
82.58 	11
82.6 	14
82.62 	17
82.64 	11
82.66 	10
82.68 	14
82.7 	9
82.72 	20
82.74 	11
82.76 	19
82.78 	16
82.8 	9
82.82 	17
82.84 	9
82.86 	18
82.88 	11
82.9 	12
82.92 	14
82.93999 	14
82.96 	13
82.98 	14
83 	18
83.02 	11
83.04 	15
83.06 	6
83.08 	4
83.1 	16
83.12 	7
83.14 	11
83.16 	10
83.18 	16
83.2 	12
83.22 	11
83.24 	12
83.26 	9
83.28 	10
83.3 	12
83.32 	6
83.34 	6
83.36 	11
83.38 	11
83.4 	4
83.42 	15
83.43999 	7
83.46 	10
83.48 	10
83.5 	9
83.52 	15
83.54 	16
83.56 	16
83.58 	9
83.6 	12
83.62 	8
83.64 	10
83.66 	16
83.68 	14
83.7 	8
83.72 	3
83.74 	8
83.76 	10
83.78 	7
83.8 	12
83.82 	10
83.84 	8
83.86 	6
83.88 	9
83.9 	6
83.92 	10
83.93999 	12
83.96 	12
83.98 	3
84 	9
84.02 	10
84.04 	5
84.06 	14
84.08 	11
84.1 	9
84.12 	8
84.14 	12
84.16 	7
84.18 	21
84.2 	8
84.22 	8
84.24 	9
84.26 	10
84.28 	14
84.3 	14
84.32 	13
84.34 	17
84.36 	9
84.38 	13
84.4 	15
84.42 	8
84.43999 	21
84.46 	8
84.48 	12
84.5 	12
84.52 	11
84.54 	9
84.56 	8
84.58 	7
84.6 	7
84.62 	14
84.64 	11
84.66 	7
84.68 	9
84.7 	7
84.72 	9
84.74 	14
84.76 	10
84.78 	10
84.8 	6
84.82 	11
84.84 	6
84.86 	15
84.88 	11
84.9 	10
84.92 	9
84.93999 	11
84.96 	11
84.98 	10
85 	8
85.02 	14
85.04 	13
85.06 	11
85.08 	13
85.1 	12
85.12 	17
85.14 	12
85.16 	12
85.18 	9
85.2 	10
85.22 	3
85.24 	9
85.26 	6
85.28 	11
85.3 	6
85.32 	18
85.34 	12
85.36 	14
85.38 	8
85.4 	12
85.42 	14
85.43999 	7
85.46 	8
85.48 	5
85.5 	13
85.52 	11
85.54 	10
85.56 	7
85.58 	5
85.6 	9
85.62 	6
85.64 	10
85.66 	13
85.68 	8
85.7 	5
85.72 	5
85.74 	6
85.76 	7
85.78 	10
85.8 	4
85.82 	9
85.84 	5
85.86 	12
85.88 	8
85.9 	5
85.92 	17
85.93999 	11
85.96 	5
85.98 	10
86 	5
86.02 	5
86.04 	11
86.06 	14
86.08 	12
86.1 	8
86.12 	14
86.14 	10
86.16 	8
86.18 	8
86.2 	13
86.22 	10
86.24 	6
86.26 	13
86.28 	5
86.3 	7
86.32 	11
86.34 	15
86.36 	4
86.38 	11
86.4 	7
86.42 	9
86.43999 	7
86.46 	6
86.48 	9
86.5 	9
86.52 	17
86.54 	9
86.56 	3
86.58 	14
86.6 	13
86.62 	15
86.64 	12
86.66 	10
86.68 	9
86.7 	14
86.72 	12
86.74 	7
86.76 	11
86.78 	9
86.8 	7
86.82 	9
86.84 	9
86.86 	7
86.88 	15
86.9 	4
86.92 	9
86.93999 	15
86.96 	14
86.98 	4
87 	8
87.02 	7
87.04 	9
87.06 	8
87.08 	12
87.1 	18
87.12 	8
87.14 	6
87.16 	12
87.18 	9
87.2 	11
87.22 	14
87.24 	8
87.26 	11
87.28 	11
87.3 	15
87.32 	9
87.34 	13
87.36 	11
87.38 	13
87.4 	13
87.42 	16
87.43999 	13
87.46 	9
87.48 	13
87.5 	8
87.52 	7
87.54 	9
87.56 	11
87.58 	12
87.6 	11
87.62 	14
87.64 	13
87.66 	12
87.68 	10
87.7 	8
87.72 	9
87.74 	8
87.76 	6
87.78 	13
87.8 	9
87.82 	10
87.84 	15
87.86 	9
87.88 	16
87.9 	12
87.92 	12
87.93999 	14
87.96 	7
87.98 	11
88 	8
88.02 	9
88.04 	10
88.06 	16
88.08 	6
88.1 	13
88.12 	8
88.14 	13
88.16 	11
88.18 	7
88.2 	10
88.22 	12
88.24 	12
88.26 	10
88.28 	8
88.3 	5
88.32 	13
88.34 	6
88.36 	13
88.38 	5
88.4 	15
88.42 	14
88.43999 	11
88.46 	8
88.48 	6
88.5 	17
88.52 	4
88.54 	10
88.56 	10
88.58 	8
88.6 	5
88.62 	5
88.64 	8
88.66 	15
88.68 	12
88.7 	11
88.72 	7
88.74 	11
88.76 	7
88.78 	11
88.8 	9
88.82 	3
88.84 	12
88.86 	4
88.88 	9
88.9 	9
88.92 	10
88.93999 	9
88.96 	6
88.98 	8
89 	13
89.02 	13
89.04 	13
89.06 	7
89.08 	6
89.1 	3
89.12 	8
89.14 	11
89.16 	11
89.18 	5
89.2 	8
89.22 	12
89.24 	10
89.26 	9
89.28 	14
89.3 	9
89.32 	12
89.34 	10
89.36 	11
89.38 	10
89.4 	8
89.42 	5
89.43999 	13
89.46 	8
89.48 	11
89.5 	13
89.52 	12
89.54 	9
89.56 	10
89.58 	10
89.6 	12
89.62 	8
89.64 	8
89.66 	7
89.68 	10
89.7 	12
89.72 	8
89.74 	7
89.76 	12
89.78 	5
89.8 	9
89.82 	13
89.84 	4
89.86 	6
89.88 	11
89.9 	12
89.92 	13
89.93999 	8
89.96 	20
89.98 	14
90 	13
