15 	32
15.02 	40
15.04 	33
15.06 	35
15.08 	36
15.1 	35
15.12 	44
15.14 	44
15.16 	49
15.18 	30
15.2 	42
15.22 	44
15.24 	44
15.26 	38
15.28 	43
15.3 	34
15.32 	44
15.34 	48
15.36 	46
15.38 	36
15.4 	43
15.42 	43
15.44 	51
15.46 	64
15.48 	36
15.5 	40
15.52 	47
15.54 	41
15.56 	39
15.58 	50
15.6 	39
15.62 	44
15.64 	51
15.66 	43
15.68 	45
15.7 	37
15.72 	41
15.74 	54
15.76 	52
15.78 	53
15.8 	36
15.82 	36
15.84 	44
15.86 	49
15.88 	48
15.9 	51
15.92 	35
15.94 	43
15.96 	35
15.98 	42
16 	58
16.02 	43
16.04 	49
16.06 	44
16.08 	49
16.1 	43
16.12 	52
16.14 	56
16.16 	54
16.18 	39
16.2 	36
16.22 	45
16.24 	39
16.26 	54
16.28 	39
16.3 	43
16.32 	44
16.34 	36
16.36 	48
16.38 	50
16.4 	59
16.42 	56
16.44 	39
16.46 	45
16.48 	45
16.5 	41
16.52 	60
16.54 	57
16.56 	42
16.58 	42
16.6 	39
16.62 	46
16.64 	32
16.66 	41
16.68 	50
16.7 	50
16.72 	43
16.74 	45
16.76 	55
16.78 	43
16.8 	46
16.82 	46
16.84 	36
16.86 	46
16.88 	48
16.9 	37
16.92 	34
16.94 	37
16.96 	48
16.98 	33
17 	46
17.02 	62
17.04 	38
17.06 	34
17.08 	25
17.1 	30
17.12 	40
17.14 	49
17.16 	28
17.18 	36
17.2 	38
17.22 	46
17.24 	38
17.26 	41
17.28 	44
17.3 	37
17.32 	26
17.34 	47
17.36 	38
17.38 	23
17.4 	30
17.42 	21
17.44 	18
17.46 	28
17.48 	31
17.5 	26
17.52 	26
17.54 	30
17.56 	29
17.58 	19
17.6 	31
17.62 	20
17.64 	19
17.66 	17
17.68 	36
17.7 	36
17.72 	25
17.74 	23
17.76 	20
17.78 	31
17.8 	19
17.82 	23
17.84 	21
17.86 	27
17.88 	25
17.9 	28
17.92 	26
17.94 	24
17.96 	20
17.98 	22
18 	20
18.02 	26
18.04 	24
18.06 	19
18.08 	27
18.1 	22
18.12 	20
18.14 	28
18.16 	17
18.18 	25
18.2 	21
18.22 	21
18.24 	22
18.26 	20
18.28 	24
18.3 	23
18.32 	25
18.34 	16
18.36 	17
18.38 	27
18.4 	13
18.42 	18
18.44 	14
18.46 	16
18.48 	33
18.5 	22
18.52 	26
18.54 	17
18.56 	23
18.58 	20
18.6 	20
18.62 	23
18.64 	19
18.66 	25
18.68 	32
18.7 	22
18.72 	26
18.74 	23
18.76 	26
18.78 	26
18.8 	27
18.82 	18
18.84 	25
18.86 	18
18.88 	17
18.9 	27
18.92 	34
18.94 	19
18.96 	19
18.98 	21
19 	19
19.02 	23
19.04 	20
19.06 	18
19.08 	28
19.1 	18
19.12 	26
19.14 	24
19.16 	16
19.18 	31
19.2 	19
19.22 	28
19.24 	29
19.26 	26
19.28 	24
19.3 	22
19.32 	27
19.34 	23
19.36 	34
19.38 	21
19.4 	23
19.42 	25
19.44 	28
19.46 	24
19.48 	28
19.5 	34
19.52 	33
19.54 	19
19.56 	20
19.58 	27
19.6 	22
19.62 	26
19.64 	26
19.66 	20
19.68 	29
19.7 	31
19.72 	24
19.74 	25
19.76 	26
19.78 	34
19.8 	20
19.82 	24
19.84 	19
19.86 	20
19.88 	26
19.9 	21
19.92 	19
19.94 	32
19.96 	18
19.98 	23
20 	18
20.02 	33
20.04 	41
20.06 	29
20.08 	23
20.1 	29
20.12 	24
20.14 	22
20.16 	24
20.18 	31
20.2 	28
20.22 	33
20.24 	27
20.26 	38
20.28 	35
20.3 	21
20.32 	28
20.34 	21
20.36 	23
20.38 	27
20.4 	16
20.42 	27
20.44 	26
20.46 	24
20.48 	17
20.5 	28
20.52 	33
20.54 	27
20.56 	28
20.58 	33
20.6 	14
20.62 	25
20.64 	27
20.66 	29
20.68 	35
20.7 	17
20.72 	24
20.74 	21
20.76 	27
20.78 	29
20.8 	33
20.82 	30
20.84 	32
20.86 	27
20.88 	32
20.9 	22
20.92 	33
20.94 	38
20.96 	25
20.98 	34
21 	24
21.02 	28
21.04 	29
21.06 	24
21.08 	32
21.1 	24
21.12 	25
21.14 	32
21.16 	31
21.18 	29
21.2 	23
21.22 	24
21.24 	29
21.26 	32
21.28 	25
21.3 	33
21.32 	30
21.34 	27
21.36 	24
21.38 	26
21.4 	25
21.42 	32
21.44 	33
21.46 	21
21.48 	22
21.5 	31
21.52 	22
21.54 	33
21.56 	23
21.58 	21
21.6 	34
21.62 	24
21.64 	27
21.66 	21
21.68 	27
21.7 	22
21.72 	23
21.74 	28
21.76 	31
21.78 	24
21.8 	18
21.82 	31
21.84 	38
21.86 	25
21.88 	25
21.9 	24
21.92 	22
21.94 	29
21.96 	22
21.98 	24
22 	26
22.02 	30
22.04 	32
22.06 	25
22.08 	31
22.1 	36
22.12 	20
22.14 	25
22.16 	28
22.18 	21
22.2 	28
22.22 	17
22.24 	31
22.26 	29
22.28 	19
22.3 	22
22.32 	29
22.34 	35
22.36 	23
22.38 	29
22.4 	25
22.42 	20
22.44 	27
22.46 	26
22.48 	19
22.5 	29
22.52 	33
22.54 	22
22.56 	20
22.58 	26
22.6 	32
22.62 	23
22.64 	27
22.66 	23
22.68 	24
22.7 	22
22.72 	26
22.74 	32
22.76 	30
22.78 	23
22.8 	21
22.82 	24
22.84 	21
22.86 	20
22.88 	24
22.9 	21
22.92 	24
22.94 	34
22.96 	27
22.98 	26
23 	23
23.02 	27
23.04 	23
23.06 	28
23.08 	20
23.1 	20
23.12 	29
23.14 	22
23.16 	31
23.18 	18
23.2 	22
23.22 	39
23.24 	24
23.26 	18
23.28 	30
23.3 	22
23.32 	20
23.34 	18
23.36 	20
23.38 	25
23.4 	20
23.42 	32
23.44 	19
23.46 	27
23.48 	27
23.5 	32
23.52 	21
23.54 	24
23.56 	21
23.58 	15
23.6 	21
23.62 	22
23.64 	20
23.66 	26
23.68 	18
23.7 	18
23.72 	22
23.74 	21
23.76 	28
23.78 	17
23.8 	25
23.82 	25
23.84 	21
23.86 	25
23.88 	18
23.9 	18
23.92 	25
23.94 	23
23.96 	14
23.98 	21
24 	18
24.02 	21
24.04 	20
24.06 	19
24.08 	28
24.1 	23
24.12 	21
24.14 	17
24.16 	28
24.18 	34
24.2 	11
24.22 	19
24.24 	15
24.26 	23
24.28 	19
24.3 	11
24.32 	23
24.34 	24
24.36 	23
24.38 	22
24.4 	34
24.42 	12
24.44 	14
24.46 	19
24.48 	23
24.5 	26
24.52 	23
24.54 	25
24.56 	25
24.58 	26
24.6 	20
24.62 	29
24.64 	18
24.66 	22
24.68 	14
24.7 	19
24.72 	24
24.74 	19
24.76 	23
24.78 	20
24.8 	22
24.82 	23
24.84 	19
24.86 	23
24.88 	29
24.9 	22
24.92 	25
24.94 	22
24.96 	19
24.98 	19
25 	26
25.02 	24
25.04 	22
25.06 	20
25.08 	10
25.1 	15
25.12 	18
25.14 	20
25.16 	20
25.18 	24
25.2 	17
25.22 	18
25.24 	16
25.26 	21
25.28 	27
25.3 	20
25.32 	26
25.34 	22
25.36 	15
25.38 	17
25.4 	19
25.42 	19
25.44 	22
25.46 	17
25.48 	23
25.5 	23
25.52 	30
25.54 	18
25.56 	11
25.58 	23
25.6 	24
25.62 	21
25.64 	29
25.66 	22
25.68 	21
25.7 	18
25.72 	18
25.74 	12
25.76 	19
25.78 	18
25.8 	14
25.82 	19
25.84 	20
25.86 	13
25.88 	19
25.9 	20
25.92 	23
25.94 	29
25.96 	28
25.98 	22
26 	25
26.02 	24
26.04 	12
26.06 	20
26.08 	26
26.1 	15
26.12 	24
26.14 	23
26.16 	16
26.18 	20
26.2 	21
26.22 	20
26.24 	23
26.26 	19
26.28 	25
26.3 	16
26.32 	18
26.34 	19
26.36 	14
26.38 	29
26.4 	20
26.42 	16
26.44 	20
26.46 	12
26.48 	24
26.5 	25
26.52 	19
26.54 	19
26.56 	13
26.58 	23
26.6 	16
26.62 	22
26.64 	24
26.66 	23
26.68 	17
26.7 	23
26.72 	15
26.74 	18
26.76 	16
26.78 	21
26.8 	15
26.82 	13
26.84 	20
26.86 	16
26.88 	20
26.9 	19
26.92 	14
26.94 	13
26.96 	25
26.98 	24
27 	26
27.02 	21
27.04 	17
27.06 	20
27.08 	16
27.1 	19
27.12 	22
27.14 	15
27.16 	23
27.18 	21
27.2 	16
27.22 	24
27.24 	18
27.26 	19
27.28 	18
27.3 	20
27.32 	20
27.34 	21
27.36 	23
27.38 	18
27.4 	24
27.42 	16
27.44 	17
27.46 	15
27.48 	17
27.5 	12
27.52 	20
27.54 	11
27.56 	12
27.58 	23
27.6 	16
27.62 	18
27.64 	16
27.66 	15
27.68 	17
27.7 	15
27.72 	20
27.74 	23
27.76 	21
27.78 	18
27.8 	18
27.82 	13
27.84 	15
27.86 	14
27.88 	13
27.9 	11
27.92 	15
27.94 	22
27.96 	19
27.98 	13
28 	19
28.02 	13
28.04 	17
28.06 	23
28.08 	15
28.1 	27
28.12 	19
28.14 	15
28.16 	23
28.18 	11
28.2 	24
28.22 	17
28.24 	21
28.26 	24
28.28 	15
28.3 	17
28.32 	18
28.34 	26
28.36 	21
28.38 	19
28.4 	23
28.42 	19
28.44 	17
28.46 	15
28.48 	10
28.5 	25
28.52 	18
28.54 	21
28.56 	18
28.58 	18
28.6 	15
28.62 	11
28.64 	22
28.66 	16
28.68 	11
28.7 	22
28.72 	23
28.74 	18
28.76 	17
28.78 	23
28.8 	17
28.82 	18
28.84 	14
28.86 	12
28.88 	18
28.9 	16
28.92 	14
28.94 	13
28.96 	16
28.98 	20
29 	18
29.02 	19
29.04 	12
29.06 	17
29.08 	17
29.1 	19
29.12 	17
29.14 	15
29.16 	28
29.18 	21
29.2 	22
29.22 	25
29.24 	26
29.26 	21
29.28 	34
29.3 	16
29.32 	26
29.34 	25
29.36 	22
29.38 	25
29.4 	20
29.42 	28
29.44 	20
29.46 	26
29.48 	18
29.5 	17
29.52 	30
29.54 	15
29.56 	19
29.58 	21
29.6 	15
29.62 	14
29.64 	18
29.66 	17
29.68 	23
29.7 	16
29.72 	20
29.74 	11
29.76 	19
29.78 	18
29.8 	13
29.82 	21
29.84 	17
29.86 	31
29.88 	19
29.9 	27
29.92 	19
29.94 	22
29.96 	20
29.98 	19
30 	13
30.02 	15
30.04 	25
30.06 	22
30.08 	23
30.1 	17
30.12 	29
30.14 	11
30.16 	25
30.18 	22
30.2 	15
30.22 	18
30.24 	16
30.26 	9
30.28 	19
30.3 	17
30.32 	9
30.34 	14
30.36 	26
30.38 	19
30.4 	19
30.42 	17
30.44 	14
30.46 	6
30.48 	20
30.5 	15
30.52 	19
30.54 	24
30.56 	23
30.58 	17
30.6 	11
30.62 	21
30.64 	13
30.66 	14
30.68 	21
30.7 	15
30.72 	23
30.74 	20
30.76 	22
30.78 	24
30.8 	15
30.82 	18
30.84 	15
30.86 	15
30.88 	24
30.9 	17
30.92 	24
30.94 	11
30.96 	18
30.98 	15
31 	16
31.02 	8
31.04 	14
31.06 	22
31.08 	23
31.1 	16
31.12 	20
31.14 	20
31.16 	20
31.18 	17
31.2 	22
31.22 	17
31.24 	21
31.26 	14
31.28 	25
31.3 	18
31.32 	11
31.34 	13
31.36 	11
31.38 	21
31.4 	17
31.42 	24
31.44 	14
31.46 	18
31.48 	13
31.5 	15
31.52 	20
31.54 	27
31.56 	16
31.58 	17
31.6 	16
31.62 	15
31.64 	16
31.66 	16
31.68 	23
31.7 	22
31.72 	13
31.74 	13
31.76 	22
31.78 	17
31.8 	13
31.82 	24
31.84 	20
31.86 	18
31.88 	18
31.9 	13
31.92 	16
31.94 	15
31.96 	21
31.98 	17
32 	18
32.02 	23
32.04 	16
32.06 	12
32.08 	26
32.1 	11
32.12 	17
32.14 	15
32.16 	23
32.18 	10
32.2 	23
32.22 	17
32.24 	15
32.26 	20
32.28 	17
32.3 	13
32.32 	9
32.34 	19
32.36 	16
32.38 	12
32.4 	14
32.42 	26
32.44 	21
32.46 	13
32.48 	10
32.5 	19
32.52 	17
32.54 	20
32.56 	15
32.58 	13
32.6 	15
32.62 	17
32.64 	13
32.66 	14
32.68 	24
32.7 	20
32.72 	15
32.74 	21
32.76 	25
32.78 	12
32.8 	22
32.82 	22
32.84 	19
32.86 	20
32.88 	14
32.9 	28
32.92 	15
32.94 	18
32.96 	11
32.98 	15
33 	13
33.02 	19
33.04 	12
33.06 	21
33.08 	20
33.1 	19
33.12 	12
33.14 	23
33.16 	18
33.18 	14
33.2 	21
33.22 	12
33.24 	11
33.26 	24
33.28 	20
33.3 	23
33.32 	14
33.34 	16
33.36 	23
33.38 	10
33.4 	10
33.42 	13
33.44 	16
33.46 	18
33.48 	20
33.5 	14
33.52 	18
33.54 	13
33.56 	13
33.58 	14
33.6 	21
33.62 	9
33.64 	17
33.66 	16
33.68 	17
33.7 	15
33.72 	21
33.74 	22
33.76 	14
33.78 	15
33.8 	15
33.82 	16
33.84 	17
33.86 	16
33.88 	17
33.9 	25
33.92 	13
33.94 	19
33.96 	17
33.98 	12
34 	17
34.02 	12
34.04 	17
34.06 	18
34.08 	16
34.1 	19
34.12 	16
34.14 	15
34.16 	14
34.18 	13
34.2 	17
34.22 	15
34.24 	17
34.26 	15
34.28 	14
34.3 	17
34.32 	20
34.34 	20
34.36 	20
34.38 	14
34.4 	23
34.42 	24
34.44 	29
34.46 	15
34.48 	21
34.5 	18
34.52 	14
34.54 	17
34.56 	22
34.58 	24
34.6 	12
34.62 	21
34.64 	15
34.66 	18
34.68 	10
34.7 	22
34.72 	19
34.74 	15
34.76 	24
34.78 	17
34.8 	12
34.82 	25
34.84 	16
34.86 	23
34.88 	8
34.9 	17
34.92 	15
34.94 	19
34.96 	19
34.98 	19
35 	23
35.02 	14
35.04 	13
35.06 	13
35.08 	16
35.1 	29
35.12 	17
35.14 	15
35.16 	30
35.18 	18
35.2 	28
35.22 	25
35.24 	20
35.26 	17
35.28 	30
35.3 	24
35.32 	29
35.34 	35
35.36 	38
35.38 	35
35.4 	27
35.42 	28
35.44 	28
35.46 	21
35.48 	26
35.5 	32
35.52 	25
35.54 	19
35.56 	26
35.58 	22
35.6 	17
35.62 	15
35.64 	23
35.66 	20
35.68 	14
35.7 	20
35.72 	15
35.74 	22
35.76 	15
35.78 	20
35.8 	23
35.82 	21
35.84 	11
35.86 	23
35.88 	10
35.9 	15
35.92 	21
35.94 	21
35.96 	12
35.98 	14
36 	21
36.02 	19
36.04 	28
36.06 	16
36.08 	16
36.1 	19
36.12 	14
36.14 	15
36.16 	19
36.18 	22
36.2 	9
36.22 	14
36.24 	20
36.26 	16
36.28 	17
36.3 	17
36.32 	18
36.34 	18
36.36 	16
36.38 	21
36.4 	24
36.42 	14
36.44 	19
36.46 	14
36.48 	14
36.5 	20
36.52 	14
36.54 	13
36.56 	16
36.58 	14
36.6 	10
36.62 	16
36.64 	19
36.66 	14
36.68 	17
36.7 	17
36.72 	24
36.74 	10
36.76 	16
36.78 	14
36.8 	19
36.82 	19
36.84 	14
36.86 	16
36.88 	21
36.9 	22
36.92 	16
36.94 	18
36.96 	18
36.98 	14
37 	17
37.02 	23
37.04 	19
37.06 	21
37.08 	26
37.1 	26
37.12 	16
37.14 	23
37.16 	10
37.18 	22
37.2 	26
37.22 	22
37.24 	14
37.26 	24
37.28 	12
37.3 	24
37.32 	15
37.34 	25
37.36 	23
37.38 	18
37.4 	24
37.42 	21
37.44 	22
37.46 	33
37.48 	26
37.5 	26
37.52 	26
37.54 	29
37.56 	30
37.58 	26
37.6 	36
37.62 	37
37.64 	20
37.66 	35
37.68 	26
37.7 	29
37.72 	30
37.74 	28
37.76 	27
37.78 	26
37.8 	23
37.82 	24
37.84 	39
37.86 	29
37.88 	28
37.9 	36
37.92 	33
37.94 	28
37.96 	43
37.98 	39
38 	46
38.02 	62
38.04 	64
38.06 	63
38.08 	66
38.1 	95
38.12 	122
38.14 	145
38.16 	242
38.18 	301
38.2 	401
38.22 	618
38.24 	791
38.26 	1031
38.28 	1054
38.3 	1099
38.32 	1070
38.34 	931
38.36 	987
38.38 	907
38.4 	766
38.42 	610
38.44 	485
38.46 	400
38.48 	288
38.5 	237
38.52 	217
38.54 	165
38.56 	139
38.58 	105
38.6 	81
38.62 	82
38.64 	77
38.66 	63
38.68 	44
38.7 	39
38.72 	40
38.74 	34
38.76 	40
38.78 	32
38.8 	22
38.82 	37
38.84 	32
38.86 	39
38.88 	35
38.9 	29
38.92 	30
38.94 	19
38.96 	29
38.98 	26
39 	30
39.02 	35
39.04 	28
39.06 	33
39.08 	30
39.1 	25
39.12 	37
39.14 	38
39.16 	29
39.18 	23
39.2 	32
39.22 	42
39.24 	18
39.26 	35
39.28 	26
39.3 	22
39.32 	23
39.34 	18
39.36 	29
39.38 	20
39.4 	27
39.42 	27
39.44 	25
39.46 	30
39.48 	33
39.5 	21
39.52 	30
39.54 	26
39.56 	31
39.58 	23
39.6 	17
39.62 	29
39.64 	16
39.66 	28
39.68 	27
39.7 	26
39.72 	25
39.74 	26
39.76 	23
39.78 	34
39.8 	19
39.82 	18
39.84 	26
39.86 	24
39.88 	29
39.9 	28
39.92 	27
39.94 	19
39.96 	42
39.98 	24
40 	19
40.02 	36
40.04 	22
40.06 	33
40.08 	39
40.1 	30
40.12 	19
40.14 	27
40.16 	34
40.18 	39
40.2 	32
40.22 	41
40.24 	38
40.26 	59
40.28 	54
40.3 	72
40.32 	74
40.34 	73
40.36 	98
40.38 	90
40.4 	100
40.42 	104
40.44 	116
40.46 	132
40.48 	118
40.5 	119
40.52 	118
40.54 	112
40.56 	101
40.58 	74
40.6 	79
40.62 	78
40.64 	71
40.66 	55
40.68 	44
40.7 	44
40.72 	47
40.74 	35
40.76 	36
40.78 	26
40.8 	33
40.82 	43
40.84 	34
40.86 	39
40.88 	23
40.9 	30
40.92 	34
40.94 	14
40.96 	21
40.98 	29
41 	27
41.02 	32
41.04 	34
41.06 	20
41.08 	28
41.1 	22
41.12 	31
41.14 	26
41.16 	35
41.18 	23
41.2 	22
41.22 	29
41.24 	29
41.26 	13
41.28 	19
41.3 	20
41.32 	19
41.34 	18
41.36 	24
41.38 	19
41.4 	14
41.42 	21
41.44 	17
41.46 	25
41.48 	28
41.5 	22
41.52 	18
41.54 	16
41.56 	17
41.58 	26
41.6 	22
41.62 	18
41.64 	14
41.66 	23
41.68 	17
41.7 	24
41.72 	23
41.74 	23
41.76 	16
41.78 	27
41.8 	15
41.82 	12
41.84 	19
41.86 	24
41.88 	16
41.9 	22
41.92 	18
41.94 	15
41.96 	18
41.98 	17
42 	6
42.02 	22
42.04 	19
42.06 	12
42.08 	12
42.1 	23
42.12 	20
42.14 	12
42.16 	14
42.18 	17
42.2 	12
42.22 	13
42.24 	19
42.26 	20
42.28 	22
42.3 	18
42.32 	20
42.34 	14
42.36 	16
42.38 	16
42.4 	12
42.42 	18
42.44 	17
42.46 	12
42.48 	16
42.5 	15
42.52 	17
42.54 	16
42.56 	25
42.58 	12
42.6 	10
42.62 	16
42.64 	23
42.66 	14
42.68 	17
42.7 	17
42.72 	17
42.74 	17
42.76 	24
42.78 	23
42.8 	19
42.82 	14
42.84 	17
42.86 	23
42.88 	25
42.9 	23
42.92 	20
42.94 	23
42.96 	18
42.98 	21
43 	21
43.02 	25
43.04 	33
43.06 	17
43.08 	26
43.1 	19
43.12 	22
43.14 	17
43.16 	17
43.18 	24
43.2 	27
43.22 	27
43.24 	12
43.26 	21
43.28 	25
43.3 	22
43.32 	22
43.34 	22
43.36 	23
43.38 	19
43.4 	28
43.42 	29
43.44 	19
43.46 	16
43.48 	16
43.5 	19
43.52 	17
43.54 	17
43.56 	26
43.58 	21
43.6 	17
43.62 	26
43.64 	25
43.66 	28
43.68 	25
43.7 	24
43.72 	25
43.74 	28
43.76 	32
43.78 	30
43.8 	28
43.82 	28
43.84 	25
43.86 	39
43.88 	35
43.9 	31
43.92 	42
43.94 	32
43.96 	26
43.98 	32
44 	30
44.02 	30
44.04 	34
44.06 	25
44.08 	29
44.1 	42
44.12 	46
44.14 	45
44.16 	39
44.18 	34
44.2 	42
44.22 	50
44.24 	39
44.26 	59
44.28 	62
44.3 	56
44.32 	79
44.34 	97
44.36 	102
44.38 	146
44.4 	194
44.42 	274
44.44 	370
44.46 	506
44.48 	624
44.5 	657
44.52 	714
44.54 	764
44.56 	732
44.58 	831
44.6 	785
44.62 	769
44.64 	686
44.66 	555
44.68 	464
44.7 	390
44.72 	354
44.74 	296
44.76 	215
44.78 	199
44.8 	115
44.82 	90
44.84 	55
44.86 	61
44.88 	52
44.9 	47
44.92 	31
44.94 	41
44.96 	23
44.98 	24
45 	37
45.02 	24
45.04 	25
45.06 	20
45.08 	31
45.1 	12
45.12 	26
45.14 	26
45.16 	23
45.18 	22
45.2 	20
45.22 	23
45.24 	26
45.26 	17
45.28 	25
45.3 	18
45.32 	24
45.34 	27
45.36 	22
45.38 	24
45.4 	17
45.42 	25
45.44 	20
45.46 	23
45.48 	30
45.5 	23
45.52 	19
45.54 	16
45.56 	24
45.58 	19
45.6 	14
45.62 	19
45.64 	23
45.66 	22
45.68 	19
45.7 	28
45.72 	22
45.74 	15
45.76 	33
45.78 	15
45.8 	19
45.82 	21
45.84 	23
45.86 	18
45.88 	24
45.9 	30
45.92 	21
45.94 	16
45.96 	17
45.98 	22
46 	17
46.02 	18
46.04 	23
46.06 	16
46.08 	17
46.1 	22
46.12 	16
46.14 	11
46.16 	16
46.18 	16
46.2 	19
46.22 	25
46.24 	19
46.26 	24
46.28 	20
46.3 	17
46.32 	16
46.34 	15
46.36 	21
46.38 	24
46.4 	16
46.42 	19
46.44 	23
46.46 	19
46.48 	17
46.5 	14
46.52 	24
46.54 	16
46.56 	13
46.58 	13
46.6 	8
46.62 	16
46.64 	17
46.66 	8
46.68 	21
46.7 	20
46.72 	15
46.74 	17
46.76 	12
46.78 	15
46.8 	11
46.82 	18
46.84 	13
46.86 	14
46.88 	17
46.9 	17
46.92 	11
46.94 	18
46.96 	16
46.98 	27
47 	21
47.02 	19
47.04 	24
47.06 	22
47.08 	18
47.1 	11
47.12 	17
47.14 	20
47.16 	25
47.18 	20
47.2 	16
47.22 	16
47.24 	21
47.26 	20
47.28 	15
47.3 	21
47.32 	11
47.34 	19
47.36 	15
47.38 	16
47.4 	22
47.42 	14
47.44 	9
47.46 	15
47.48 	11
47.5 	20
47.52 	9
47.54 	12
47.56 	18
47.58 	16
47.6 	11
47.62 	13
47.64 	10
47.66 	15
47.68 	23
47.7 	16
47.72 	14
47.74 	12
47.76 	18
47.78 	16
47.8 	9
47.82 	14
47.84 	13
47.86 	19
47.88 	18
47.9 	17
47.92 	15
47.94 	20
47.96 	22
47.98 	8
48 	17
48.02 	17
48.04 	16
48.06 	10
48.08 	13
48.1 	14
48.12 	18
48.14 	13
48.16 	22
48.18 	24
48.2 	17
48.22 	12
48.24 	20
48.26 	20
48.28 	23
48.3 	8
48.32 	18
48.34 	15
48.36 	12
48.38 	11
48.4 	11
48.42 	14
48.44 	16
48.46 	13
48.48 	13
48.5 	13
48.52 	13
48.54 	14
48.56 	10
48.58 	15
48.6 	17
48.62 	20
48.64 	20
48.66 	26
48.68 	22
48.7 	11
48.72 	5
48.74 	20
48.76 	11
48.78 	12
48.8 	15
48.82 	14
48.84 	11
48.86 	17
48.88 	16
48.9 	14
48.92 	17
48.94 	15
48.96 	8
48.98 	18
49 	17
49.02 	9
49.04 	21
49.06 	15
49.08 	15
49.1 	14
49.12 	18
49.14 	18
49.16 	13
49.18 	12
49.2 	13
49.22 	10
49.24 	13
49.26 	13
49.28 	15
49.3 	15
49.32 	15
49.34 	13
49.36 	18
49.38 	13
49.4 	13
49.42 	9
49.44 	15
49.46 	9
49.48 	11
49.5 	9
49.52 	11
49.54 	18
49.56 	15
49.58 	17
49.6 	13
49.62 	16
49.64 	17
49.66 	14
49.68 	11
49.7 	19
49.72 	18
49.74 	19
49.76 	6
49.78 	9
49.8 	20
49.82 	15
49.84 	22
49.86 	15
49.88 	12
49.9 	17
49.92 	12
49.94 	16
49.96 	15
49.98 	10
50 	17
50.02 	12
50.04 	12
50.06 	16
50.08 	14
50.1 	14
50.12 	14
50.14 	18
50.16 	21
50.18 	9
50.2 	16
50.22 	16
50.24 	9
50.26 	9
50.28 	11
50.3 	14
50.32 	20
50.34 	14
50.36 	17
50.38 	14
50.4 	13
50.42 	12
50.44 	6
50.46 	18
50.48 	13
50.5 	15
50.52 	17
50.54 	16
50.56 	10
50.58 	10
50.6 	10
50.62 	13
50.64 	11
50.66 	18
50.68 	9
50.7 	14
50.72 	17
50.74 	17
50.76 	13
50.78 	17
50.8 	15
50.82 	18
50.84 	14
50.86 	12
50.88 	16
50.9 	11
50.92 	13
50.94 	14
50.96 	14
50.98 	12
51 	9
51.02 	20
51.04 	19
51.06 	13
51.08 	14
51.1 	12
51.12 	13
51.14 	15
51.16 	15
51.18 	16
51.2 	18
51.22 	17
51.24 	15
51.26 	9
51.28 	16
51.3 	14
51.32 	9
51.34 	15
51.36 	12
51.38 	12
51.4 	21
51.42 	15
51.44 	13
51.46 	21
51.48 	12
51.5 	16
51.52 	14
51.54 	14
51.56 	11
51.58 	7
51.6 	19
51.62 	15
51.64 	10
51.66 	13
51.68 	19
51.7 	13
51.72 	11
51.74 	17
51.76 	9
51.78 	17
51.8 	13
51.82 	16
51.84 	17
51.86 	12
51.88 	11
51.9 	11
51.92 	11
51.94 	14
51.96 	10
51.98 	15
52 	18
52.02 	15
52.04 	13
52.06 	19
52.08 	13
52.1 	11
52.12 	13
52.14 	15
52.16 	15
52.18 	20
52.2 	13
52.22 	7
52.24 	18
52.26 	8
52.28 	15
52.3 	10
52.32 	15
52.34 	13
52.36 	14
52.38 	19
52.4 	7
52.42 	7
52.44 	13
52.46 	14
52.48 	14
52.5 	21
52.52 	15
52.54 	16
52.56 	19
52.58 	11
52.6 	17
52.62 	14
52.64 	15
52.66 	11
52.68 	10
52.7 	12
52.72 	7
52.74 	12
52.76 	14
52.78 	13
52.8 	19
52.82 	12
52.84 	12
52.86 	11
52.88 	10
52.9 	15
52.92 	19
52.94 	19
52.96 	12
52.98 	15
53 	13
53.02 	28
53.04 	20
53.06 	23
53.08 	21
53.1 	23
53.12 	29
53.14 	22
53.16 	30
53.18 	18
53.2 	25
53.22 	25
53.24 	32
53.26 	39
53.28 	43
53.3 	32
53.32 	37
53.34 	35
53.36 	31
53.38 	28
53.4 	28
53.42 	26
53.44 	27
53.46 	29
53.48 	29
53.5 	21
53.52 	11
53.54 	15
53.56 	21
53.58 	18
53.6 	28
53.62 	14
53.64 	19
53.66 	14
53.68 	15
53.7 	14
53.72 	18
53.74 	21
53.76 	11
53.78 	19
53.8 	13
53.82 	14
53.84 	15
53.86 	17
53.88 	16
53.9 	14
53.92 	21
53.94 	15
53.96 	8
53.98 	15
54 	12
54.02 	24
54.04 	16
54.06 	17
54.08 	21
54.1 	12
54.12 	14
54.14 	18
54.16 	14
54.18 	6
54.2 	8
54.22 	11
54.24 	18
54.26 	17
54.28 	17
54.3 	17
54.32 	12
54.34 	12
54.36 	14
54.38 	6
54.4 	20
54.42 	13
54.44 	10
54.46 	12
54.48 	16
54.5 	5
54.52 	7
54.54 	17
54.56 	15
54.58 	12
54.6 	17
54.62 	15
54.64 	10
54.66 	10
54.68 	19
54.7 	17
54.72 	14
54.74 	17
54.76 	12
54.78 	8
54.8 	16
54.82 	10
54.84 	18
54.86 	8
54.88 	16
54.9 	9
54.92 	10
54.94 	9
54.96 	11
54.98 	11
55 	13
55.02 	14
55.04 	11
55.06 	12
55.08 	9
55.1 	12
55.12 	11
55.14 	12
55.16 	18
55.18 	25
55.2 	20
55.22 	14
55.24 	12
55.26 	14
55.28 	14
55.3 	14
55.32 	14
55.34 	13
55.36 	14
55.38 	21
55.4 	12
55.42 	14
55.44 	16
55.46 	15
55.48 	11
55.5 	15
55.52 	11
55.54 	11
55.56 	6
55.58 	15
55.6 	8
55.62 	15
55.64 	18
55.66 	18
55.68 	15
55.7 	13
55.72 	23
55.74 	10
55.76 	9
55.78 	16
55.8 	13
55.82 	15
55.84 	12
55.86 	13
55.88 	17
55.9 	12
55.92 	17
55.94 	17
55.96 	17
55.98 	18
56 	16
56.02 	16
56.04 	13
56.06 	13
56.08 	9
56.1 	15
56.12 	14
56.14 	17
56.16 	14
56.18 	18
56.2 	15
56.22 	9
56.24 	10
56.26 	10
56.28 	16
56.3 	18
56.32 	15
56.34 	12
56.36 	16
56.38 	17
56.4 	15
56.42 	11
56.44 	17
56.46 	5
56.48 	19
56.5 	17
56.52 	15
56.54 	15
56.56 	11
56.58 	21
56.6 	9
56.62 	14
56.64 	14
56.66 	13
56.68 	18
56.7 	9
56.72 	12
56.74 	12
56.76 	14
56.78 	19
56.8 	19
56.82 	16
56.84 	9
56.86 	12
56.88 	14
56.9 	15
56.92 	13
56.94 	11
56.96 	14
56.98 	12
57 	12
57.02 	13
57.04 	13
57.06 	16
57.08 	20
57.1 	13
57.12 	12
57.14 	11
57.16 	15
57.18 	16
57.2 	19
57.22 	12
57.24 	12
57.26 	7
57.28 	9
57.3 	19
57.32 	21
57.34 	11
57.36 	10
57.38 	10
57.4 	19
57.42 	11
57.44 	23
57.46 	13
57.48 	16
57.5 	11
57.52 	10
57.54 	12
57.56 	17
57.58 	15
57.6 	11
57.62 	18
57.64 	9
57.66 	13
57.68 	12
57.7 	18
57.72 	16
57.74 	17
57.76 	13
57.78 	14
57.8 	10
57.82 	16
57.84 	7
57.86 	12
57.88 	10
57.9 	16
57.92 	17
57.94 	11
57.96 	13
57.98 	17
58 	16
58.02 	11
58.04 	14
58.06 	16
58.08 	13
58.1 	14
58.12 	12
58.14 	17
58.16 	13
58.18 	12
58.2 	12
58.22 	14
58.24 	16
58.26 	10
58.28 	13
58.3 	8
58.32 	11
58.34 	7
58.36 	13
58.38 	15
58.4 	16
58.42 	14
58.44 	18
58.46 	16
58.48 	21
58.5 	8
58.52 	8
58.54 	12
58.56 	15
58.58 	11
58.6 	15
58.62 	15
58.64 	12
58.66 	13
58.68 	9
58.7 	14
58.72 	13
58.74 	12
58.76 	13
58.78 	12
58.8 	12
58.82 	15
58.84 	16
58.86 	12
58.88 	19
58.9 	18
58.92 	8
58.94 	20
58.96 	15
58.98 	12
59 	10
59.02 	9
59.04 	10
59.06 	18
59.08 	13
59.1 	9
59.12 	15
59.14 	6
59.16 	12
59.18 	10
59.2 	13
59.22 	11
59.24 	8
59.26 	17
59.28 	9
59.3 	11
59.32 	12
59.34 	13
59.36 	8
59.38 	14
59.4 	17
59.42 	11
59.44 	15
59.46 	14
59.48 	11
59.5 	10
59.52 	11
59.54 	12
59.56 	20
59.58 	10
59.6 	6
59.62 	13
59.64 	15
59.66 	14
59.68 	11
59.7 	13
59.72 	13
59.74 	11
59.76 	9
59.78 	11
59.8 	8
59.82 	11
59.84 	5
59.86 	3
59.88 	12
59.9 	11
59.92 	12
59.94 	12
59.96 	12
59.98 	15
60 	16
60.02 	13
60.04 	13
60.06 	15
60.08 	7
60.1 	14
60.12 	11
60.14 	8
60.16 	15
60.18 	13
60.2 	14
60.22 	14
60.24 	9
60.26 	12
60.28 	13
60.3 	14
60.32 	15
60.34 	14
60.36 	13
60.38 	16
60.4 	12
60.42 	7
60.44 	14
60.46 	13
60.48 	11
60.5 	12
60.52 	11
60.54 	13
60.56 	9
60.58 	7
60.6 	12
60.62 	15
60.64 	10
60.66 	17
60.68 	16
60.7 	13
60.72 	17
60.74 	6
60.76 	14
60.78 	8
60.8 	19
60.82 	16
60.84 	10
60.86 	19
60.88 	12
60.9 	10
60.92 	12
60.94 	10
60.96 	12
60.98 	9
61 	13
61.02 	15
61.04 	14
61.06 	13
61.08 	13
61.1 	11
61.12 	16
61.14 	16
61.16 	7
61.18 	21
61.2 	13
61.22 	5
61.24 	11
61.26 	11
61.28 	14
61.3 	16
61.32 	10
61.34 	7
61.36 	11
61.38 	13
61.4 	14
61.42 	11
61.44 	16
61.46 	9
61.48 	18
61.5 	7
61.52 	9
61.54 	11
61.56 	11
61.58 	13
61.6 	17
61.62 	14
61.64 	5
61.66 	12
61.68 	17
61.7 	9
61.72 	11
61.74 	10
61.76 	14
61.78 	12
61.8 	6
61.82 	17
61.84 	8
61.86 	10
61.88 	5
61.9 	12
61.92 	10
61.94 	12
61.96 	6
61.98 	13
62 	17
62.02 	14
62.04 	8
62.06 	11
62.08 	10
62.1 	14
62.12 	12
62.14 	12
62.16 	11
62.18 	10
62.2 	15
62.22 	7
62.24 	8
62.26 	20
62.28 	13
62.3 	11
62.32 	14
62.34 	17
62.36 	9
62.38 	16
62.4 	8
62.42 	12
62.44 	21
62.46 	15
62.48 	14
62.5 	10
62.52 	22
62.54 	10
62.56 	14
62.58 	12
62.6 	16
62.62 	9
62.64 	9
62.66 	7
62.68 	13
62.7 	15
62.72 	12
62.74 	14
62.76 	19
62.78 	14
62.8 	19
62.82 	19
62.84 	14
62.86 	17
62.88 	13
62.9 	15
62.92 	14
62.94 	11
62.96 	13
62.98 	21
63 	14
63.02 	14
63.04 	14
63.06 	12
63.08 	6
63.1 	12
63.12 	12
63.14 	17
63.16 	19
63.18 	16
63.2 	14
63.22 	21
63.24 	17
63.26 	14
63.28 	15
63.3 	20
63.32 	15
63.34 	14
63.36 	14
63.38 	21
63.4 	24
63.42 	14
63.44 	16
63.46 	28
63.48 	20
63.5 	33
63.52 	31
63.54 	32
63.56 	34
63.58 	36
63.6 	28
63.62 	28
63.64 	23
63.66 	24
63.68 	25
63.7 	10
63.72 	20
63.74 	19
63.76 	18
63.78 	17
63.8 	14
63.82 	21
63.84 	16
63.86 	15
63.88 	10
63.9 	22
63.92 	17
63.94 	23
63.96 	18
63.98 	18
64 	20
64.02 	18
64.04 	22
64.06 	13
64.08 	20
64.1 	17
64.12 	19
64.14 	19
64.16 	20
64.18 	15
64.2 	12
64.22 	22
64.24 	31
64.26 	26
64.28 	21
64.3 	18
64.32 	25
64.34 	22
64.36 	15
64.38 	24
64.4 	22
64.42 	21
64.44 	23
64.46 	14
64.48 	25
64.5 	17
64.52 	15
64.54 	16
64.56 	24
64.58 	19
64.6 	30
64.62 	20
64.64 	19
64.66 	27
64.68 	33
64.7 	24
64.72 	40
64.74 	49
64.76 	62
64.78 	97
64.8 	109
64.82 	171
64.84 	222
64.86 	263
64.88 	271
64.9 	258
64.92 	234
64.94 	253
64.96 	184
64.98 	182
65 	163
65.02 	155
65.04 	145
65.06 	184
65.08 	162
65.1 	132
65.12 	104
65.14 	96
65.16 	86
65.18 	56
65.2 	50
65.22 	30
65.24 	37
65.26 	25
65.28 	30
65.3 	19
65.32 	21
65.34 	25
65.36 	15
65.38 	15
65.4 	12
65.42 	18
65.44 	21
65.46 	19
65.48 	17
65.5 	13
65.52 	18
65.54 	20
65.56 	17
65.58 	16
65.6 	12
65.62 	8
65.64 	27
65.66 	11
65.68 	15
65.7 	7
65.72 	11
65.74 	16
65.76 	13
65.78 	12
65.8 	16
65.82 	15
65.84 	17
65.86 	10
65.88 	8
65.9 	14
65.92 	16
65.94 	14
65.96 	8
65.98 	7
66 	6
66.02 	17
66.04 	20
66.06 	13
66.08 	12
66.1 	12
66.12 	8
66.14 	12
66.16 	10
66.18 	15
66.2 	5
66.22 	15
66.24 	13
66.26 	13
66.28 	16
66.3 	25
66.32 	12
66.34 	11
66.36 	8
66.38 	13
66.4 	13
66.42 	6
66.44 	6
66.46 	6
66.48 	15
66.5 	15
66.52 	3
66.54 	11
66.56 	11
66.58 	10
66.6 	10
66.62 	10
66.64 	16
66.66 	16
66.68 	9
66.7 	11
66.72 	16
66.74 	14
66.76 	11
66.78 	9
66.8 	13
66.82 	11
66.84 	12
66.86 	9
66.88 	9
66.9 	9
66.92 	13
66.94 	10
66.96 	11
66.98 	6
67 	13
67.02 	17
67.04 	9
67.06 	7
67.08 	11
67.1 	12
67.12 	12
67.14 	10
67.16 	7
67.18 	14
67.2 	11
67.22 	16
67.24 	11
67.26 	10
67.28 	11
67.3 	10
67.32 	12
67.34 	7
67.36 	12
67.38 	9
67.4 	9
67.42 	15
67.44 	9
67.46 	6
67.48 	15
67.5 	14
67.52 	24
67.54 	6
67.56 	14
67.58 	15
67.6 	14
67.62 	7
67.64 	10
67.66 	10
67.68 	3
67.7 	11
67.72 	16
67.74 	13
67.76 	12
67.78 	13
67.8 	9
67.82 	14
67.84 	16
67.86 	8
67.88 	11
67.9 	14
67.92 	14
67.94 	10
67.96 	16
67.98 	8
68 	13
68.02 	8
68.04 	15
68.06 	5
68.08 	13
68.1 	11
68.12 	11
68.14 	12
68.16 	17
68.18 	14
68.2 	19
68.22 	10
68.24 	8
68.26 	11
68.28 	12
68.3 	9
68.32 	15
68.34 	9
68.36 	13
68.38 	22
68.4 	20
68.42 	16
68.44 	10
68.46 	13
68.48 	8
68.5 	12
68.52 	15
68.54 	15
68.56 	6
68.58 	13
68.6 	4
68.62 	17
68.64 	11
68.66 	9
68.68 	9
68.7 	17
68.72 	11
68.74 	14
68.76 	12
68.78 	15
68.8 	16
68.82 	13
68.84 	12
68.86 	11
68.88 	10
68.9 	8
68.92 	11
68.94 	13
68.96 	14
68.98 	8
69 	16
69.02 	12
69.04 	11
69.06 	19
69.08 	14
69.1 	10
69.12 	10
69.14 	13
69.16 	7
69.18 	7
69.2 	13
69.22 	15
69.24 	11
69.26 	18
69.28 	16
69.3 	11
69.32 	16
69.34 	12
69.36 	13
69.38 	14
69.4 	12
69.42 	9
69.44 	13
69.46 	17
69.48 	13
69.5 	9
69.52 	12
69.54 	16
69.56 	11
69.58 	9
69.6 	11
69.62 	10
69.64 	10
69.66 	13
69.68 	15
69.7 	17
69.72 	12
69.74 	8
69.76 	15
69.78 	16
69.8 	11
69.82 	17
69.84 	10
69.86 	11
69.88 	16
69.9 	4
69.92 	15
69.94 	15
69.96 	16
69.98 	11
70 	12
70.02 	8
70.04 	20
70.06 	14
70.08 	15
70.1 	11
70.12 	8
70.14 	10
70.16 	9
70.18 	14
70.2 	15
70.22 	18
70.24 	14
70.26 	8
70.28 	12
70.3 	15
70.32 	14
70.34 	10
70.36 	11
70.38 	18
70.4 	8
70.42 	8
70.44 	14
70.46 	11
70.48 	9
70.5 	17
70.52 	22
70.54 	18
70.56 	11
70.58 	14
70.6 	10
70.62 	12
70.64 	18
70.66 	13
70.68 	18
70.7 	23
70.72 	20
70.74 	12
70.76 	16
70.78 	20
70.8 	21
70.82 	22
70.84 	20
70.86 	19
70.88 	27
70.9 	27
70.92 	26
70.94 	30
70.96 	28
70.98 	30
71 	30
71.02 	41
71.04 	26
71.06 	26
71.08 	39
71.1 	31
71.12 	31
71.14 	27
71.16 	32
71.18 	25
71.2 	22
71.22 	28
71.24 	27
71.26 	26
71.28 	23
71.3 	22
71.32 	21
71.34 	21
71.36 	21
71.38 	23
71.4 	21
71.42 	10
71.44 	15
71.46 	25
71.48 	9
71.5 	18
71.52 	14
71.54 	17
71.56 	12
71.58 	12
71.6 	13
71.62 	15
71.64 	24
71.66 	11
71.68 	20
71.7 	14
71.72 	13
71.74 	8
71.76 	14
71.78 	8
71.8 	16
71.82 	11
71.84 	22
71.86 	14
71.88 	18
71.9 	13
71.92 	12
71.94 	9
71.96 	8
71.98 	10
72 	18
72.02 	9
72.04 	11
72.06 	9
72.08 	18
72.1 	11
72.12 	10
72.14 	17
72.16 	10
72.18 	14
72.2 	3
72.22 	16
72.24 	13
72.26 	14
72.28 	12
72.3 	15
72.32 	8
72.34 	9
72.36 	11
72.38 	8
72.4 	7
72.42 	13
72.44 	11
72.46 	14
72.48 	10
72.5 	8
72.52 	14
72.54 	12
72.56 	13
72.58 	17
72.6 	17
72.62 	14
72.64 	9
72.66 	17
72.68 	19
72.7 	8
72.72 	12
72.74 	19
72.76 	16
72.78 	17
72.8 	11
72.82 	13
72.84 	15
72.86 	7
72.88 	12
72.9 	14
72.92 	10
72.94 	11
72.96 	12
72.98 	11
73 	10
73.02 	14
73.04 	8
73.06 	6
73.08 	17
73.1 	10
73.12 	19
73.14 	13
73.16 	15
73.18 	9
73.2 	20
73.22 	19
73.24 	16
73.26 	17
73.28 	14
73.3 	14
73.32 	11
73.34 	14
73.36 	9
73.38 	10
73.4 	17
73.42 	10
73.44 	16
73.46 	11
73.48 	6
73.5 	14
73.52 	6
73.54 	11
73.56 	14
73.58 	14
73.6 	16
73.62 	14
73.64 	10
73.66 	15
73.68 	10
73.7 	10
73.72 	11
73.74 	13
73.76 	17
73.78 	12
73.8 	11
73.82 	16
73.84 	14
73.86 	9
73.88 	14
73.9 	9
73.92 	14
73.94 	13
73.96 	14
73.98 	13
74 	18
74.02 	17
74.04 	11
74.06 	10
74.08 	13
74.1 	13
74.12 	9
74.14 	10
74.16 	10
74.18 	7
74.2 	9
74.22 	12
74.24 	12
74.26 	19
74.28 	12
74.3 	20
74.32 	10
74.34 	14
74.36 	13
74.38 	16
74.4 	13
74.42 	18
74.44 	20
74.46 	10
74.48 	10
74.5 	20
74.52 	13
74.54 	10
74.56 	13
74.58 	15
74.6 	11
74.62 	13
74.64 	15
74.66 	11
74.68 	20
74.7 	19
74.72 	13
74.74 	11
74.76 	14
74.78 	13
74.8 	17
74.82 	12
74.84 	6
74.86 	18
74.88 	17
74.9 	13
74.92 	9
74.94 	20
74.96 	17
74.98 	7
75 	15
75.02 	15
75.04 	19
75.06 	11
75.08 	10
75.1 	11
75.12 	13
75.14 	10
75.16 	15
75.18 	16
75.2 	13
75.22 	14
75.24 	26
75.26 	15
75.28 	10
75.3 	16
75.32 	14
75.34 	18
75.36 	14
75.38 	19
75.4 	17
75.42 	10
75.44 	7
75.46 	21
75.48 	8
75.5 	13
75.52 	11
75.54 	8
75.56 	16
75.58 	11
75.6 	11
75.62 	13
75.64 	15
75.66 	10
75.68 	14
75.7 	13
75.72 	15
75.74 	11
75.76 	18
75.78 	11
75.8 	19
75.82 	22
75.84 	8
75.86 	13
75.88 	17
75.9 	13
75.92 	12
75.94 	12
75.96 	15
75.98 	22
76 	12
76.02 	13
76.04 	13
76.06 	12
76.08 	16
76.1 	11
76.12 	16
76.14 	22
76.16 	17
76.18 	13
76.2 	14
76.22 	22
76.24 	15
76.26 	16
76.28 	16
76.3 	18
76.32 	16
76.34 	21
76.36 	16
76.38 	12
76.4 	17
76.42 	20
76.44 	17
76.46 	16
76.48 	22
76.5 	19
76.52 	22
76.54 	21
76.56 	13
76.58 	22
76.6 	26
76.62 	21
76.64 	26
76.66 	28
76.68 	24
76.7 	26
76.72 	30
76.74 	27
76.76 	23
76.78 	26
76.8 	41
76.82 	38
76.84 	32
76.86 	29
76.88 	23
76.9 	23
76.92 	25
76.93999 	29
76.96 	27
76.98 	16
77 	29
77.02 	29
77.04 	22
77.06 	29
77.08 	30
77.1 	14
77.12 	20
77.14 	17
77.16 	35
77.18 	22
77.2 	19
77.22 	26
77.24 	12
77.26 	23
77.28 	10
77.3 	19
77.32 	13
77.34 	9
77.36 	20
77.38 	18
77.4 	21
77.42 	28
77.43999 	26
77.46 	18
77.48 	22
77.5 	23
77.52 	32
77.54 	19
77.56 	24
77.58 	20
77.6 	27
77.62 	26
77.64 	19
77.66 	42
77.68 	14
77.7 	41
77.72 	33
77.74 	50
77.76 	42
77.78 	45
77.8 	44
77.82 	73
77.84 	67
77.86 	81
77.88 	110
77.9 	150
77.92 	206
77.93999 	288
77.96 	381
77.98 	377
78 	402
78.02 	345
78.04 	281
78.06 	277
78.08 	279
78.1 	220
78.12 	211
78.14 	203
78.16 	203
78.18 	183
78.2 	230
78.22 	231
78.24 	221
78.26 	171
78.28 	182
78.3 	141
78.32 	110
78.34 	85
78.36 	76
78.38 	59
78.4 	58
78.42 	54
78.43999 	36
78.46 	36
78.48 	38
78.5 	34
78.52 	27
78.54 	21
78.56 	22
78.58 	31
78.6 	25
78.62 	25
78.64 	24
78.66 	21
78.68 	19
78.7 	13
78.72 	16
78.74 	24
78.76 	23
78.78 	14
78.8 	12
78.82 	15
78.84 	13
78.86 	21
78.88 	14
78.9 	15
78.92 	12
78.93999 	22
78.96 	15
78.98 	19
79 	15
79.02 	16
79.04 	18
79.06 	10
79.08 	21
79.1 	11
79.12 	15
79.14 	14
79.16 	18
79.18 	18
79.2 	14
79.22 	13
79.24 	17
79.26 	19
79.28 	13
79.3 	11
79.32 	11
79.34 	11
79.36 	12
79.38 	7
79.4 	13
79.42 	16
79.43999 	16
79.46 	16
79.48 	18
79.5 	8
79.52 	9
79.54 	15
79.56 	17
79.58 	6
79.6 	14
79.62 	14
79.64 	10
79.66 	13
79.68 	10
79.7 	21
79.72 	16
79.74 	14
79.76 	15
79.78 	13
79.8 	13
79.82 	12
79.84 	13
79.86 	15
79.88 	16
79.9 	12
79.92 	15
79.93999 	17
79.96 	11
79.98 	14
80 	7
80.02 	16
80.04 	13
80.06 	16
80.08 	7
80.1 	10
80.12 	14
80.14 	9
80.16 	11
80.18 	9
80.2 	15
80.22 	13
80.24 	5
80.26 	10
80.28 	12
80.3 	18
80.32 	16
80.34 	10
80.36 	16
80.38 	11
80.4 	9
80.42 	17
80.43999 	19
80.46 	10
80.48 	18
80.5 	12
80.52 	14
80.54 	14
80.56 	14
80.58 	11
80.6 	9
80.62 	17
80.64 	8
80.66 	16
80.68 	11
80.7 	7
80.72 	9
80.74 	15
80.76 	14
80.78 	17
80.8 	13
80.82 	15
80.84 	10
80.86 	7
80.88 	13
80.9 	12
80.92 	11
80.93999 	9
80.96 	18
80.98 	13
81 	11
81.02 	18
81.04 	14
81.06 	15
81.08 	13
81.1 	12
81.12 	12
81.14 	14
81.16 	13
81.18 	9
81.2 	14
81.22 	17
81.24 	21
81.26 	12
81.28 	22
81.3 	11
81.32 	10
81.34 	7
81.36 	11
81.38 	11
81.4 	17
81.42 	11
81.43999 	13
81.46 	9
81.48 	12
81.5 	15
81.52 	19
81.54 	10
81.56 	11
81.58 	20
81.6 	14
81.62 	9
81.64 	14
81.66 	8
81.68 	15
81.7 	16
81.72 	12
81.74 	13
81.76 	19
81.78 	12
81.8 	10
81.82 	15
81.84 	13
81.86 	18
81.88 	11
81.9 	15
81.92 	14
81.93999 	23
81.96 	21
81.98 	14
82 	18
82.02 	23
82.04 	24
82.06 	30
82.08 	39
82.1 	64
82.12 	80
82.14 	88
82.16 	115
82.18 	100
82.2 	121
82.22 	93
82.24 	87
82.26 	75
82.28 	69
82.3 	45
82.32 	57
82.34 	44
82.36 	61
82.38 	65
82.4 	61
82.42 	66
82.43999 	53
82.46 	64
82.48 	53
82.5 	48
82.52 	51
82.54 	41
82.56 	40
82.58 	29
82.6 	25
82.62 	22
82.64 	24
82.66 	18
82.68 	18
82.7 	17
82.72 	11
82.74 	12
82.76 	15
82.78 	17
82.8 	9
82.82 	18
82.84 	16
82.86 	13
82.88 	16
82.9 	15
82.92 	14
82.93999 	12
82.96 	6
82.98 	15
83 	12
83.02 	9
83.04 	18
83.06 	10
83.08 	12
83.1 	10
83.12 	11
83.14 	13
83.16 	13
83.18 	15
83.2 	15
83.22 	19
83.24 	14
83.26 	14
83.28 	10
83.3 	11
83.32 	19
83.34 	15
83.36 	10
83.38 	13
83.4 	9
83.42 	11
83.43999 	12
83.46 	12
83.48 	13
83.5 	16
83.52 	15
83.54 	14
83.56 	10
83.58 	12
83.6 	12
83.62 	18
83.64 	9
83.66 	12
83.68 	14
83.7 	18
83.72 	13
83.74 	9
83.76 	13
83.78 	13
83.8 	16
83.82 	12
83.84 	11
83.86 	14
83.88 	19
83.9 	12
83.92 	10
83.93999 	17
83.96 	13
83.98 	17
84 	15
84.02 	7
84.04 	12
84.06 	16
84.08 	17
84.1 	15
84.12 	13
84.14 	11
84.16 	15
84.18 	19
84.2 	10
84.22 	13
84.24 	12
84.26 	9
84.28 	8
84.3 	15
84.32 	19
84.34 	10
84.36 	6
84.38 	13
84.4 	12
84.42 	12
84.43999 	8
84.46 	10
84.48 	13
84.5 	10
84.52 	16
84.54 	14
84.56 	9
84.58 	20
84.6 	14
84.62 	10
84.64 	9
84.66 	11
84.68 	16
84.7 	7
84.72 	10
84.74 	8
84.76 	7
84.78 	14
84.8 	14
84.82 	7
84.84 	9
84.86 	14
84.88 	9
84.9 	8
84.92 	15
84.93999 	8
84.96 	13
84.98 	12
85 	10
85.02 	10
85.04 	8
85.06 	12
85.08 	14
85.1 	13
85.12 	8
85.14 	9
85.16 	12
85.18 	9
85.2 	11
85.22 	12
85.24 	8
85.26 	11
85.28 	11
85.3 	20
85.32 	12
85.34 	10
85.36 	10
85.38 	17
85.4 	11
85.42 	7
85.43999 	6
85.46 	5
85.48 	15
85.5 	11
85.52 	12
85.54 	5
85.56 	5
85.58 	18
85.6 	9
85.62 	8
85.64 	20
85.66 	10
85.68 	9
85.7 	13
85.72 	11
85.74 	16
85.76 	9
85.78 	12
85.8 	8
85.82 	8
85.84 	11
85.86 	17
85.88 	9
85.9 	10
85.92 	8
85.93999 	10
85.96 	12
85.98 	16
86 	8
86.02 	19
86.04 	6
86.06 	8
86.08 	7
86.1 	11
86.12 	12
86.14 	13
86.16 	6
86.18 	4
86.2 	11
86.22 	12
86.24 	13
86.26 	15
86.28 	10
86.3 	10
86.32 	8
86.34 	15
86.36 	15
86.38 	13
86.4 	10
86.42 	5
86.43999 	17
86.46 	18
86.48 	14
86.5 	7
86.52 	7
86.54 	9
86.56 	16
86.58 	8
86.6 	12
86.62 	7
86.64 	7
86.66 	10
86.68 	6
86.7 	14
86.72 	14
86.74 	11
86.76 	9
86.78 	13
86.8 	12
86.82 	9
86.84 	12
86.86 	12
86.88 	5
86.9 	11
86.92 	10
86.93999 	8
86.96 	12
86.98 	12
87 	16
87.02 	5
87.04 	6
87.06 	6
87.08 	14
87.1 	7
87.12 	9
87.14 	11
87.16 	17
87.18 	13
87.2 	12
87.22 	13
87.24 	8
87.26 	11
87.28 	9
87.3 	9
87.32 	13
87.34 	11
87.36 	14
87.38 	15
87.4 	11
87.42 	10
87.43999 	10
87.46 	13
87.48 	21
87.5 	11
87.52 	12
87.54 	6
87.56 	18
87.58 	10
87.6 	12
87.62 	7
87.64 	12
87.66 	15
87.68 	14
87.7 	8
87.72 	8
87.74 	9
87.76 	9
87.78 	9
87.8 	10
87.82 	12
87.84 	13
87.86 	7
87.88 	13
87.9 	13
87.92 	8
87.93999 	7
87.96 	7
87.98 	17
88 	9
88.02 	14
88.04 	13
88.06 	8
88.08 	20
88.1 	16
88.12 	12
88.14 	14
88.16 	12
88.18 	14
88.2 	7
88.22 	16
88.24 	12
88.26 	8
88.28 	14
88.3 	12
88.32 	12
88.34 	8
88.36 	9
88.38 	11
88.4 	12
88.42 	9
88.43999 	8
88.46 	10
88.48 	10
88.5 	5
88.52 	17
88.54 	8
88.56 	11
88.58 	8
88.6 	11
88.62 	8
88.64 	3
88.66 	9
88.68 	14
88.7 	12
88.72 	10
88.74 	6
88.76 	10
88.78 	13
88.8 	7
88.82 	9
88.84 	9
88.86 	13
88.88 	11
88.9 	13
88.92 	11
88.93999 	13
88.96 	11
88.98 	12
89 	10
89.02 	9
89.04 	11
89.06 	9
89.08 	11
89.1 	10
89.12 	9
89.14 	13
89.16 	7
89.18 	8
89.2 	11
89.22 	12
89.24 	10
89.26 	8
89.28 	9
89.3 	3
89.32 	9
89.34 	11
89.36 	14
89.38 	9
89.4 	15
89.42 	7
89.43999 	7
89.46 	5
89.48 	6
89.5 	8
89.52 	12
89.54 	13
89.56 	10
89.58 	6
89.6 	6
89.62 	18
89.64 	13
89.66 	10
89.68 	17
89.7 	9
89.72 	12
89.74 	9
89.76 	10
89.78 	10
89.8 	14
89.82 	10
89.84 	4
89.86 	11
89.88 	12
89.9 	11
89.92 	6
89.93999 	13
89.96 	17
89.98 	6
90 	5
