15 	53
15.02 	59
15.04 	47
15.06 	62
15.08 	55
15.1 	76
15.12 	47
15.14 	57
15.16 	56
15.18 	58
15.2 	66
15.22 	60
15.24 	70
15.26 	63
15.28 	54
15.3 	59
15.32 	71
15.34 	57
15.36 	46
15.38 	73
15.4 	72
15.42 	39
15.44 	73
15.46 	67
15.48 	70
15.5 	69
15.52 	68
15.54 	61
15.56 	66
15.58 	77
15.6 	71
15.62 	67
15.64 	66
15.66 	65
15.68 	75
15.7 	54
15.72 	77
15.74 	74
15.76 	65
15.78 	73
15.8 	59
15.82 	61
15.84 	63
15.86 	68
15.88 	60
15.9 	72
15.92 	67
15.94 	63
15.96 	81
15.98 	77
16 	75
16.02 	80
16.04 	67
16.06 	69
16.08 	80
16.1 	67
16.12 	75
16.14 	78
16.16 	71
16.18 	72
16.2 	60
16.22 	72
16.24 	80
16.26 	65
16.28 	69
16.3 	67
16.32 	87
16.34 	63
16.36 	76
16.38 	68
16.4 	71
16.42 	61
16.44 	63
16.46 	66
16.48 	69
16.5 	68
16.52 	74
16.54 	79
16.56 	71
16.58 	58
16.6 	70
16.62 	71
16.64 	78
16.66 	69
16.68 	62
16.7 	57
16.72 	70
16.74 	55
16.76 	60
16.78 	71
16.8 	65
16.82 	68
16.84 	62
16.86 	50
16.88 	60
16.9 	65
16.92 	58
16.94 	64
16.96 	61
16.98 	67
17 	65
17.02 	66
17.04 	58
17.06 	62
17.08 	64
17.1 	59
17.12 	48
17.14 	62
17.16 	62
17.18 	55
17.2 	54
17.22 	48
17.24 	51
17.26 	78
17.28 	54
17.3 	56
17.32 	53
17.34 	62
17.36 	48
17.38 	60
17.4 	57
17.42 	47
17.44 	41
17.46 	59
17.48 	51
17.5 	41
17.52 	46
17.54 	39
17.56 	40
17.58 	40
17.6 	44
17.62 	44
17.64 	36
17.66 	39
17.68 	48
17.7 	39
17.72 	24
17.74 	27
17.76 	43
17.78 	36
17.8 	27
17.82 	35
17.84 	36
17.86 	32
17.88 	34
17.9 	38
17.92 	35
17.94 	26
17.96 	31
17.98 	36
18 	39
18.02 	36
18.04 	34
18.06 	28
18.08 	28
18.1 	23
18.12 	28
18.14 	41
18.16 	39
18.18 	34
18.2 	39
18.22 	26
18.24 	38
18.26 	27
18.28 	34
18.3 	38
18.32 	32
18.34 	32
18.36 	31
18.38 	33
18.4 	21
18.42 	35
18.44 	43
18.46 	24
18.48 	24
18.5 	30
18.52 	34
18.54 	26
18.56 	43
18.58 	34
18.6 	27
18.62 	21
18.64 	27
18.66 	33
18.68 	24
18.7 	31
18.72 	34
18.74 	28
18.76 	33
18.78 	23
18.8 	29
18.82 	32
18.84 	28
18.86 	41
18.88 	27
18.9 	28
18.92 	29
18.94 	32
18.96 	27
18.98 	39
19 	31
19.02 	31
19.04 	28
19.06 	26
19.08 	28
19.1 	28
19.12 	30
19.14 	28
19.16 	36
19.18 	26
19.2 	37
19.22 	35
19.24 	29
19.26 	32
19.28 	26
19.3 	29
19.32 	24
19.34 	46
19.36 	37
19.38 	34
19.4 	28
19.42 	25
19.44 	27
19.46 	25
19.48 	28
19.5 	34
19.52 	41
19.54 	32
19.56 	28
19.58 	30
19.6 	37
19.62 	33
19.64 	19
19.66 	30
19.68 	27
19.7 	42
19.72 	33
19.74 	39
19.76 	31
19.78 	36
19.8 	36
19.82 	38
19.84 	29
19.86 	22
19.88 	33
19.9 	39
19.92 	33
19.94 	34
19.96 	42
19.98 	36
20 	30
20.02 	31
20.04 	30
20.06 	35
20.08 	40
20.1 	30
20.12 	40
20.14 	34
20.16 	35
20.18 	48
20.2 	44
20.22 	45
20.24 	36
20.26 	40
20.28 	44
20.3 	31
20.32 	39
20.34 	30
20.36 	30
20.38 	38
20.4 	32
20.42 	27
20.44 	40
20.46 	34
20.48 	26
20.5 	38
20.52 	45
20.54 	29
20.56 	30
20.58 	52
20.6 	50
20.62 	39
20.64 	31
20.66 	43
20.68 	36
20.7 	44
20.72 	42
20.74 	39
20.76 	27
20.78 	32
20.8 	32
20.82 	40
20.84 	48
20.86 	41
20.88 	36
20.9 	34
20.92 	33
20.94 	40
20.96 	34
20.98 	40
21 	27
21.02 	42
21.04 	48
21.06 	30
21.08 	40
21.1 	37
21.12 	40
21.14 	24
21.16 	36
21.18 	34
21.2 	35
21.22 	34
21.24 	24
21.26 	42
21.28 	32
21.3 	23
21.32 	39
21.34 	38
21.36 	34
21.38 	43
21.4 	50
21.42 	42
21.44 	34
21.46 	36
21.48 	45
21.5 	45
21.52 	37
21.54 	48
21.56 	31
21.58 	40
21.6 	41
21.62 	36
21.64 	43
21.66 	31
21.68 	43
21.7 	30
21.72 	36
21.74 	38
21.76 	39
21.78 	36
21.8 	36
21.82 	25
21.84 	34
21.86 	36
21.88 	37
21.9 	33
21.92 	37
21.94 	34
21.96 	37
21.98 	43
22 	42
22.02 	38
22.04 	39
22.06 	32
22.08 	43
22.1 	34
22.12 	39
22.14 	33
22.16 	43
22.18 	39
22.2 	31
22.22 	34
22.24 	32
22.26 	35
22.28 	30
22.3 	40
22.32 	36
22.34 	34
22.36 	38
22.38 	43
22.4 	38
22.42 	36
22.44 	47
22.46 	41
22.48 	36
22.5 	36
22.52 	45
22.54 	45
22.56 	46
22.58 	32
22.6 	53
22.62 	36
22.64 	18
22.66 	40
22.68 	38
22.7 	33
22.72 	33
22.74 	41
22.76 	36
22.78 	38
22.8 	39
22.82 	36
22.84 	36
22.86 	38
22.88 	19
22.9 	40
22.92 	28
22.94 	34
22.96 	27
22.98 	41
23 	37
23.02 	34
23.04 	27
23.06 	34
23.08 	41
23.1 	30
23.12 	25
23.14 	35
23.16 	34
23.18 	36
23.2 	37
23.22 	42
23.24 	23
23.26 	25
23.28 	32
23.3 	24
23.32 	43
23.34 	35
23.36 	32
23.38 	24
23.4 	35
23.42 	43
23.44 	39
23.46 	28
23.48 	34
23.5 	40
23.52 	32
23.54 	32
23.56 	27
23.58 	31
23.6 	34
23.62 	35
23.64 	28
23.66 	41
23.68 	28
23.7 	22
23.72 	32
23.74 	37
23.76 	22
23.78 	32
23.8 	35
23.82 	28
23.84 	36
23.86 	38
23.88 	32
23.9 	33
23.92 	20
23.94 	30
23.96 	30
23.98 	34
24 	29
24.02 	35
24.04 	29
24.06 	33
24.08 	29
24.1 	37
24.12 	30
24.14 	32
24.16 	30
24.18 	31
24.2 	22
24.22 	31
24.24 	27
24.26 	24
24.28 	27
24.3 	40
24.32 	25
24.34 	45
24.36 	42
24.38 	31
24.4 	38
24.42 	41
24.44 	27
24.46 	25
24.48 	26
24.5 	33
24.52 	35
24.54 	25
24.56 	25
24.58 	36
24.6 	22
24.62 	24
24.64 	25
24.66 	14
24.68 	33
24.7 	31
24.72 	27
24.74 	23
24.76 	39
24.78 	28
24.8 	30
24.82 	32
24.84 	25
24.86 	37
24.88 	21
24.9 	19
24.92 	20
24.94 	27
24.96 	29
24.98 	38
25 	26
25.02 	36
25.04 	18
25.06 	34
25.08 	33
25.1 	28
25.12 	25
25.14 	24
25.16 	29
25.18 	28
25.2 	28
25.22 	37
25.24 	27
25.26 	25
25.28 	18
25.3 	32
25.32 	27
25.34 	35
25.36 	25
25.38 	26
25.4 	22
25.42 	35
25.44 	35
25.46 	22
25.48 	27
25.5 	30
25.52 	32
25.54 	21
25.56 	29
25.58 	19
25.6 	23
25.62 	28
25.64 	18
25.66 	25
25.68 	23
25.7 	25
25.72 	23
25.74 	24
25.76 	22
25.78 	27
25.8 	35
25.82 	22
25.84 	21
25.86 	27
25.88 	28
25.9 	24
25.92 	25
25.94 	29
25.96 	21
25.98 	29
26 	27
26.02 	33
26.04 	22
26.06 	30
26.08 	26
26.1 	33
26.12 	19
26.14 	32
26.16 	30
26.18 	18
26.2 	27
26.22 	30
26.24 	26
26.26 	20
26.28 	27
26.3 	30
26.32 	24
26.34 	25
26.36 	26
26.38 	21
26.4 	21
26.42 	24
26.44 	30
26.46 	24
26.48 	34
26.5 	26
26.52 	23
26.54 	30
26.56 	21
26.58 	23
26.6 	16
26.62 	27
26.64 	23
26.66 	26
26.68 	32
26.7 	29
26.72 	37
26.74 	21
26.76 	30
26.78 	20
26.8 	31
26.82 	18
26.84 	30
26.86 	21
26.88 	29
26.9 	25
26.92 	19
26.94 	18
26.96 	25
26.98 	35
27 	21
27.02 	19
27.04 	26
27.06 	21
27.08 	24
27.1 	19
27.12 	31
27.14 	24
27.16 	21
27.18 	25
27.2 	23
27.22 	27
27.24 	22
27.26 	20
27.28 	23
27.3 	24
27.32 	27
27.34 	26
27.36 	20
27.38 	26
27.4 	25
27.42 	31
27.44 	26
27.46 	26
27.48 	16
27.5 	41
27.52 	18
27.54 	20
27.56 	29
27.58 	23
27.6 	23
27.62 	27
27.64 	15
27.66 	27
27.68 	31
27.7 	30
27.72 	19
27.74 	31
27.76 	20
27.78 	21
27.8 	34
27.82 	19
27.84 	29
27.86 	26
27.88 	23
27.9 	25
27.92 	25
27.94 	31
27.96 	20
27.98 	26
28 	20
28.02 	28
28.04 	28
28.06 	37
28.08 	33
28.1 	32
28.12 	30
28.14 	19
28.16 	20
28.18 	32
28.2 	28
28.22 	21
28.24 	25
28.26 	23
28.28 	28
28.3 	32
28.32 	32
28.34 	20
28.36 	16
28.38 	15
28.4 	24
28.42 	18
28.44 	28
28.46 	23
28.48 	27
28.5 	32
28.52 	23
28.54 	26
28.56 	25
28.58 	27
28.6 	21
28.62 	27
28.64 	22
28.66 	23
28.68 	32
28.7 	20
28.72 	26
28.74 	28
28.76 	23
28.78 	29
28.8 	31
28.82 	31
28.84 	21
28.86 	29
28.88 	23
28.9 	30
28.92 	20
28.94 	21
28.96 	19
28.98 	22
29 	30
29.02 	28
29.04 	24
29.06 	17
29.08 	32
29.1 	22
29.12 	28
29.14 	31
29.16 	23
29.18 	23
29.2 	27
29.22 	20
29.24 	19
29.26 	30
29.28 	24
29.3 	26
29.32 	28
29.34 	18
29.36 	22
29.38 	26
29.4 	24
29.42 	21
29.44 	29
29.46 	25
29.48 	16
29.5 	26
29.52 	25
29.54 	26
29.56 	18
29.58 	29
29.6 	21
29.62 	16
29.64 	26
29.66 	28
29.68 	27
29.7 	35
29.72 	18
29.74 	25
29.76 	25
29.78 	29
29.8 	29
29.82 	35
29.84 	29
29.86 	22
29.88 	21
29.9 	31
29.92 	25
29.94 	29
29.96 	35
29.98 	27
30 	16
30.02 	24
30.04 	12
30.06 	22
30.08 	20
30.1 	25
30.12 	26
30.14 	23
30.16 	25
30.18 	16
30.2 	25
30.22 	24
30.24 	33
30.26 	24
30.28 	28
30.3 	18
30.32 	29
30.34 	27
30.36 	19
30.38 	23
30.4 	22
30.42 	25
30.44 	24
30.46 	24
30.48 	22
30.5 	18
30.52 	24
30.54 	20
30.56 	24
30.58 	28
30.6 	31
30.62 	23
30.64 	28
30.66 	25
30.68 	22
30.7 	23
30.72 	35
30.74 	23
30.76 	14
30.78 	30
30.8 	31
30.82 	25
30.84 	27
30.86 	26
30.88 	35
30.9 	26
30.92 	35
30.94 	24
30.96 	18
30.98 	19
31 	22
31.02 	20
31.04 	31
31.06 	21
31.08 	19
31.1 	30
31.12 	28
31.14 	33
31.16 	26
31.18 	25
31.2 	32
31.22 	15
31.24 	28
31.26 	27
31.28 	31
31.3 	19
31.32 	26
31.34 	19
31.36 	32
31.38 	17
31.4 	21
31.42 	20
31.44 	28
31.46 	27
31.48 	30
31.5 	19
31.52 	24
31.54 	27
31.56 	24
31.58 	27
31.6 	24
31.62 	23
31.64 	26
31.66 	25
31.68 	23
31.7 	16
31.72 	27
31.74 	16
31.76 	21
31.78 	26
31.8 	19
31.82 	15
31.84 	20
31.86 	28
31.88 	26
31.9 	20
31.92 	24
31.94 	22
31.96 	24
31.98 	25
32 	28
32.02 	25
32.04 	26
32.06 	23
32.08 	29
32.1 	17
32.12 	18
32.14 	19
32.16 	25
32.18 	24
32.2 	28
32.22 	25
32.24 	20
32.26 	24
32.28 	28
32.3 	16
32.32 	12
32.34 	18
32.36 	21
32.38 	26
32.4 	20
32.42 	16
32.44 	17
32.46 	25
32.48 	16
32.5 	25
32.52 	21
32.54 	17
32.56 	30
32.58 	23
32.6 	21
32.62 	22
32.64 	23
32.66 	31
32.68 	23
32.7 	25
32.72 	28
32.74 	24
32.76 	30
32.78 	24
32.8 	15
32.82 	23
32.84 	21
32.86 	27
32.88 	20
32.9 	22
32.92 	16
32.94 	20
32.96 	22
32.98 	22
33 	13
33.02 	26
33.04 	23
33.06 	19
33.08 	24
33.1 	22
33.12 	18
33.14 	26
33.16 	31
33.18 	28
33.2 	22
33.22 	14
33.24 	27
33.26 	24
33.28 	19
33.3 	21
33.32 	25
33.34 	31
33.36 	17
33.38 	17
33.4 	14
33.42 	30
33.44 	23
33.46 	27
33.48 	23
33.5 	19
33.52 	23
33.54 	25
33.56 	23
33.58 	28
33.6 	26
33.62 	26
33.64 	19
33.66 	28
33.68 	27
33.7 	29
33.72 	21
33.74 	13
33.76 	24
33.78 	28
33.8 	22
33.82 	13
33.84 	21
33.86 	18
33.88 	17
33.9 	19
33.92 	17
33.94 	20
33.96 	28
33.98 	29
34 	28
34.02 	27
34.04 	26
34.06 	27
34.08 	29
34.1 	18
34.12 	22
34.14 	25
34.16 	26
34.18 	22
34.2 	21
34.22 	26
34.24 	20
34.26 	28
34.28 	14
34.3 	23
34.32 	25
34.34 	29
34.36 	15
34.38 	22
34.4 	19
34.42 	17
34.44 	22
34.46 	22
34.48 	25
34.5 	32
34.52 	21
34.54 	34
34.56 	23
34.58 	20
34.6 	22
34.62 	19
34.64 	29
34.66 	32
34.68 	29
34.7 	32
34.72 	21
34.74 	25
34.76 	38
34.78 	25
34.8 	28
34.82 	18
34.84 	25
34.86 	24
34.88 	26
34.9 	25
34.92 	25
34.94 	23
34.96 	28
34.98 	31
35 	25
35.02 	38
35.04 	21
35.06 	29
35.08 	23
35.1 	19
35.12 	25
35.14 	21
35.16 	38
35.18 	39
35.2 	29
35.22 	26
35.24 	34
35.26 	37
35.28 	34
35.3 	39
35.32 	43
35.34 	45
35.36 	48
35.38 	49
35.4 	49
35.42 	59
35.44 	49
35.46 	79
35.48 	45
35.5 	72
35.52 	54
35.54 	63
35.56 	74
35.58 	41
35.6 	54
35.62 	41
35.64 	43
35.66 	49
35.68 	38
35.7 	28
35.72 	28
35.74 	24
35.76 	34
35.78 	29
35.8 	34
35.82 	27
35.84 	30
35.86 	31
35.88 	23
35.9 	19
35.92 	34
35.94 	24
35.96 	27
35.98 	29
36 	15
36.02 	24
36.04 	28
36.06 	30
36.08 	24
36.1 	24
36.12 	28
36.14 	20
36.16 	25
36.18 	27
36.2 	35
36.22 	26
36.24 	26
36.26 	23
36.28 	25
36.3 	31
36.32 	21
36.34 	31
36.36 	23
36.38 	31
36.4 	21
36.42 	31
36.44 	26
36.46 	27
36.48 	28
36.5 	18
36.52 	20
36.54 	30
36.56 	17
36.58 	35
36.6 	19
36.62 	21
36.64 	22
36.66 	24
36.68 	22
36.7 	20
36.72 	12
36.74 	17
36.76 	26
36.78 	23
36.8 	25
36.82 	28
36.84 	20
36.86 	27
36.88 	19
36.9 	26
36.92 	25
36.94 	21
36.96 	28
36.98 	32
37 	22
37.02 	27
37.04 	16
37.06 	25
37.08 	22
37.1 	25
37.12 	24
37.14 	36
37.16 	28
37.18 	23
37.2 	31
37.22 	25
37.24 	25
37.26 	17
37.28 	22
37.3 	23
37.32 	25
37.34 	30
37.36 	21
37.38 	40
37.4 	27
37.42 	21
37.44 	21
37.46 	23
37.48 	27
37.5 	28
37.52 	39
37.54 	31
37.56 	24
37.58 	30
37.6 	36
37.62 	38
37.64 	32
37.66 	27
37.68 	31
37.7 	29
37.72 	27
37.74 	31
37.76 	38
37.78 	39
37.8 	29
37.82 	36
37.84 	41
37.86 	35
37.88 	29
37.9 	32
37.92 	28
37.94 	20
37.96 	29
37.98 	30
38 	37
38.02 	41
38.04 	30
38.06 	39
38.08 	31
38.1 	37
38.12 	47
38.14 	43
38.16 	56
38.18 	50
38.2 	53
38.22 	45
38.24 	67
38.26 	67
38.28 	85
38.3 	107
38.32 	131
38.34 	154
38.36 	210
38.38 	274
38.4 	404
38.42 	503
38.44 	712
38.46 	826
38.48 	1030
38.5 	1201
38.52 	1187
38.54 	1065
38.56 	992
38.58 	906
38.6 	870
38.62 	767
38.64 	601
38.66 	565
38.68 	327
38.7 	292
38.72 	221
38.74 	192
38.76 	124
38.78 	104
38.8 	107
38.82 	99
38.84 	73
38.86 	78
38.88 	72
38.9 	63
38.92 	58
38.94 	45
38.96 	52
38.98 	60
39 	51
39.02 	60
39.04 	41
39.06 	54
39.08 	43
39.1 	40
39.12 	47
39.14 	46
39.16 	70
39.18 	36
39.2 	59
39.22 	52
39.24 	46
39.26 	55
39.28 	52
39.3 	48
39.32 	49
39.34 	41
39.36 	66
39.38 	50
39.4 	44
39.42 	43
39.44 	45
39.46 	45
39.48 	45
39.5 	42
39.52 	52
39.54 	40
39.56 	50
39.58 	43
39.6 	37
39.62 	46
39.64 	30
39.66 	40
39.68 	41
39.7 	34
39.72 	38
39.74 	41
39.76 	44
39.78 	45
39.8 	34
39.82 	29
39.84 	41
39.86 	31
39.88 	37
39.9 	43
39.92 	43
39.94 	52
39.96 	52
39.98 	43
40 	57
40.02 	60
40.04 	54
40.06 	51
40.08 	56
40.1 	51
40.12 	62
40.14 	67
40.16 	61
40.18 	81
40.2 	91
40.22 	108
40.24 	100
40.26 	105
40.28 	119
40.3 	120
40.32 	131
40.34 	143
40.36 	170
40.38 	175
40.4 	187
40.42 	208
40.44 	211
40.46 	242
40.48 	217
40.5 	249
40.52 	242
40.54 	249
40.56 	237
40.58 	211
40.6 	177
40.62 	165
40.64 	175
40.66 	157
40.68 	138
40.7 	129
40.72 	108
40.74 	77
40.76 	94
40.78 	81
40.8 	83
40.82 	70
40.84 	55
40.86 	45
40.88 	62
40.9 	69
40.92 	60
40.94 	52
40.96 	50
40.98 	44
41 	50
41.02 	43
41.04 	41
41.06 	41
41.08 	39
41.1 	37
41.12 	34
41.14 	39
41.16 	31
41.18 	31
41.2 	45
41.22 	35
41.24 	49
41.26 	28
41.28 	35
41.3 	42
41.32 	34
41.34 	27
41.36 	20
41.38 	23
41.4 	34
41.42 	31
41.44 	37
41.46 	31
41.48 	36
41.5 	19
41.52 	22
41.54 	33
41.56 	24
41.58 	29
41.6 	22
41.62 	27
41.64 	28
41.66 	29
41.68 	19
41.7 	26
41.72 	25
41.74 	35
41.76 	26
41.78 	19
41.8 	23
41.82 	29
41.84 	23
41.86 	33
41.88 	27
41.9 	20
41.92 	20
41.94 	22
41.96 	26
41.98 	24
42 	19
42.02 	34
42.04 	27
42.06 	27
42.08 	29
42.1 	25
42.12 	33
42.14 	23
42.16 	42
42.18 	34
42.2 	25
42.22 	27
42.24 	23
42.26 	23
42.28 	28
42.3 	27
42.32 	35
42.34 	24
42.36 	24
42.38 	19
42.4 	23
42.42 	21
42.44 	11
42.46 	24
42.48 	22
42.5 	36
42.52 	24
42.54 	28
42.56 	20
42.58 	20
42.6 	27
42.62 	26
42.64 	23
42.66 	28
42.68 	29
42.7 	22
42.72 	44
42.74 	23
42.76 	26
42.78 	21
42.8 	24
42.82 	21
42.84 	24
42.86 	29
42.88 	17
42.9 	25
42.92 	23
42.94 	24
42.96 	27
42.98 	25
43 	22
43.02 	35
43.04 	27
43.06 	29
43.08 	27
43.1 	25
43.12 	30
43.14 	33
43.16 	25
43.18 	34
43.2 	41
43.22 	31
43.24 	17
43.26 	26
43.28 	34
43.3 	28
43.32 	33
43.34 	35
43.36 	24
43.38 	19
43.4 	20
43.42 	29
43.44 	32
43.46 	28
43.48 	23
43.5 	25
43.52 	27
43.54 	23
43.56 	27
43.58 	28
43.6 	22
43.62 	24
43.64 	26
43.66 	24
43.68 	31
43.7 	25
43.72 	23
43.74 	30
43.76 	31
43.78 	34
43.8 	21
43.82 	24
43.84 	24
43.86 	42
43.88 	28
43.9 	34
43.92 	26
43.94 	26
43.96 	43
43.98 	21
44 	17
44.02 	24
44.04 	22
44.06 	26
44.08 	35
44.1 	20
44.12 	28
44.14 	31
44.16 	36
44.18 	34
44.2 	29
44.22 	30
44.24 	32
44.26 	26
44.28 	32
44.3 	38
44.32 	32
44.34 	41
44.36 	29
44.38 	58
44.4 	41
44.42 	53
44.44 	48
44.46 	58
44.48 	74
44.5 	71
44.52 	96
44.54 	94
44.56 	137
44.58 	181
44.6 	195
44.62 	265
44.64 	331
44.66 	399
44.68 	522
44.7 	604
44.72 	778
44.74 	829
44.76 	758
44.78 	731
44.8 	584
44.82 	559
44.84 	516
44.86 	468
44.88 	414
44.9 	311
44.92 	233
44.94 	181
44.96 	146
44.98 	113
45 	74
45.02 	78
45.04 	51
45.06 	57
45.08 	45
45.1 	39
45.12 	50
45.14 	29
45.16 	38
45.18 	29
45.2 	33
45.22 	32
45.24 	18
45.26 	35
45.28 	28
45.3 	18
45.32 	34
45.34 	25
45.36 	29
45.38 	33
45.4 	27
45.42 	19
45.44 	20
45.46 	28
45.48 	29
45.5 	25
45.52 	21
45.54 	30
45.56 	17
45.58 	25
45.6 	23
45.62 	36
45.64 	23
45.66 	28
45.68 	18
45.7 	18
45.72 	25
45.74 	29
45.76 	28
45.78 	22
45.8 	29
45.82 	28
45.84 	21
45.86 	18
45.88 	22
45.9 	25
45.92 	26
45.94 	17
45.96 	23
45.98 	34
46 	23
46.02 	16
46.04 	28
46.06 	21
46.08 	25
46.1 	20
46.12 	29
46.14 	25
46.16 	28
46.18 	23
46.2 	19
46.22 	24
46.24 	26
46.26 	20
46.28 	28
46.3 	18
46.32 	18
46.34 	25
46.36 	20
46.38 	24
46.4 	23
46.42 	26
46.44 	22
46.46 	20
46.48 	28
46.5 	26
46.52 	26
46.54 	15
46.56 	31
46.58 	33
46.6 	27
46.62 	34
46.64 	31
46.66 	23
46.68 	33
46.7 	22
46.72 	23
46.74 	18
46.76 	27
46.78 	30
46.8 	17
46.82 	26
46.84 	14
46.86 	16
46.88 	31
46.9 	20
46.92 	33
46.94 	30
46.96 	25
46.98 	22
47 	24
47.02 	18
47.04 	18
47.06 	22
47.08 	23
47.1 	18
47.12 	26
47.14 	26
47.16 	35
47.18 	16
47.2 	16
47.22 	20
47.24 	18
47.26 	19
47.28 	23
47.3 	25
47.32 	25
47.34 	25
47.36 	23
47.38 	27
47.4 	29
47.42 	20
47.44 	20
47.46 	17
47.48 	25
47.5 	22
47.52 	16
47.54 	22
47.56 	24
47.58 	23
47.6 	19
47.62 	17
47.64 	17
47.66 	23
47.68 	30
47.7 	18
47.72 	12
47.74 	23
47.76 	23
47.78 	21
47.8 	26
47.82 	23
47.84 	22
47.86 	14
47.88 	15
47.9 	25
47.92 	15
47.94 	11
47.96 	19
47.98 	26
48 	18
48.02 	17
48.04 	29
48.06 	24
48.08 	20
48.1 	13
48.12 	19
48.14 	24
48.16 	15
48.18 	16
48.2 	27
48.22 	19
48.24 	29
48.26 	17
48.28 	13
48.3 	26
48.32 	25
48.34 	23
48.36 	20
48.38 	20
48.4 	23
48.42 	19
48.44 	29
48.46 	18
48.48 	21
48.5 	14
48.52 	21
48.54 	13
48.56 	20
48.58 	13
48.6 	20
48.62 	27
48.64 	23
48.66 	17
48.68 	15
48.7 	19
48.72 	16
48.74 	23
48.76 	21
48.78 	11
48.8 	30
48.82 	23
48.84 	10
48.86 	14
48.88 	17
48.9 	16
48.92 	27
48.94 	25
48.96 	13
48.98 	18
49 	27
49.02 	14
49.04 	22
49.06 	15
49.08 	17
49.1 	27
49.12 	21
49.14 	23
49.16 	15
49.18 	24
49.2 	20
49.22 	21
49.24 	23
49.26 	15
49.28 	20
49.3 	20
49.32 	14
49.34 	24
49.36 	16
49.38 	20
49.4 	17
49.42 	17
49.44 	14
49.46 	17
49.48 	17
49.5 	34
49.52 	15
49.54 	14
49.56 	17
49.58 	24
49.6 	18
49.62 	21
49.64 	22
49.66 	22
49.68 	19
49.7 	17
49.72 	16
49.74 	20
49.76 	21
49.78 	20
49.8 	23
49.82 	17
49.84 	24
49.86 	11
49.88 	20
49.9 	21
49.92 	13
49.94 	22
49.96 	29
49.98 	20
50 	22
50.02 	21
50.04 	16
50.06 	21
50.08 	22
50.1 	12
50.12 	23
50.14 	22
50.16 	16
50.18 	20
50.2 	9
50.22 	20
50.24 	14
50.26 	15
50.28 	27
50.3 	23
50.32 	35
50.34 	16
50.36 	24
50.38 	20
50.4 	13
50.42 	22
50.44 	17
50.46 	24
50.48 	15
50.5 	22
50.52 	14
50.54 	26
50.56 	18
50.58 	11
50.6 	18
50.62 	16
50.64 	16
50.66 	24
50.68 	29
50.7 	20
50.72 	13
50.74 	25
50.76 	17
50.78 	20
50.8 	16
50.82 	23
50.84 	21
50.86 	19
50.88 	22
50.9 	16
50.92 	21
50.94 	17
50.96 	18
50.98 	25
51 	28
51.02 	18
51.04 	16
51.06 	14
51.08 	18
51.1 	19
51.12 	22
51.14 	20
51.16 	28
51.18 	18
51.2 	18
51.22 	18
51.24 	21
51.26 	14
51.28 	20
51.3 	20
51.32 	15
51.34 	27
51.36 	14
51.38 	18
51.4 	19
51.42 	14
51.44 	21
51.46 	16
51.48 	20
51.5 	21
51.52 	15
51.54 	20
51.56 	22
51.58 	12
51.6 	25
51.62 	17
51.64 	17
51.66 	16
51.68 	18
51.7 	13
51.72 	18
51.74 	18
51.76 	17
51.78 	22
51.8 	17
51.82 	20
51.84 	19
51.86 	16
51.88 	15
51.9 	19
51.92 	15
51.94 	26
51.96 	13
51.98 	18
52 	20
52.02 	14
52.04 	26
52.06 	23
52.08 	20
52.1 	15
52.12 	12
52.14 	28
52.16 	22
52.18 	17
52.2 	15
52.22 	25
52.24 	24
52.26 	14
52.28 	25
52.3 	21
52.32 	24
52.34 	21
52.36 	10
52.38 	16
52.4 	19
52.42 	17
52.44 	18
52.46 	21
52.48 	20
52.5 	29
52.52 	16
52.54 	18
52.56 	21
52.58 	13
52.6 	21
52.62 	20
52.64 	16
52.66 	17
52.68 	20
52.7 	24
52.72 	22
52.74 	29
52.76 	24
52.78 	21
52.8 	19
52.82 	21
52.84 	23
52.86 	17
52.88 	32
52.9 	26
52.92 	18
52.94 	22
52.96 	21
52.98 	31
53 	20
53.02 	27
53.04 	23
53.06 	20
53.08 	31
53.1 	25
53.12 	37
53.14 	35
53.16 	26
53.18 	49
53.2 	25
53.22 	33
53.24 	39
53.26 	33
53.28 	41
53.3 	35
53.32 	40
53.34 	40
53.36 	48
53.38 	50
53.4 	41
53.42 	45
53.44 	40
53.46 	49
53.48 	43
53.5 	35
53.52 	38
53.54 	32
53.56 	33
53.58 	33
53.6 	24
53.62 	26
53.64 	38
53.66 	24
53.68 	27
53.7 	29
53.72 	21
53.74 	26
53.76 	22
53.78 	20
53.8 	12
53.82 	20
53.84 	28
53.86 	25
53.88 	21
53.9 	24
53.92 	16
53.94 	27
53.96 	23
53.98 	17
54 	22
54.02 	18
54.04 	8
54.06 	23
54.08 	22
54.1 	20
54.12 	21
54.14 	23
54.16 	24
54.18 	25
54.2 	20
54.22 	18
54.24 	22
54.26 	17
54.28 	21
54.3 	20
54.32 	18
54.34 	23
54.36 	13
54.38 	13
54.4 	20
54.42 	15
54.44 	19
54.46 	13
54.48 	16
54.5 	27
54.52 	28
54.54 	21
54.56 	16
54.58 	20
54.6 	13
54.62 	14
54.64 	19
54.66 	25
54.68 	19
54.7 	21
54.72 	14
54.74 	20
54.76 	23
54.78 	19
54.8 	18
54.82 	20
54.84 	23
54.86 	18
54.88 	18
54.9 	17
54.92 	18
54.94 	13
54.96 	13
54.98 	16
55 	22
55.02 	20
55.04 	21
55.06 	17
55.08 	22
55.1 	11
55.12 	16
55.14 	12
55.16 	17
55.18 	14
55.2 	15
55.22 	21
55.24 	23
55.26 	19
55.28 	17
55.3 	18
55.32 	23
55.34 	22
55.36 	13
55.38 	23
55.4 	25
55.42 	17
55.44 	16
55.46 	21
55.48 	15
55.5 	16
55.52 	13
55.54 	28
55.56 	13
55.58 	17
55.6 	22
55.62 	14
55.64 	11
55.66 	6
55.68 	21
55.7 	17
55.72 	16
55.74 	26
55.76 	19
55.78 	13
55.8 	14
55.82 	19
55.84 	15
55.86 	20
55.88 	20
55.9 	22
55.92 	21
55.94 	17
55.96 	20
55.98 	21
56 	17
56.02 	11
56.04 	17
56.06 	16
56.08 	15
56.1 	26
56.12 	27
56.14 	20
56.16 	18
56.18 	20
56.2 	20
56.22 	18
56.24 	14
56.26 	28
56.28 	19
56.3 	20
56.32 	20
56.34 	18
56.36 	20
56.38 	17
56.4 	18
56.42 	21
56.44 	22
56.46 	27
56.48 	23
56.5 	17
56.52 	18
56.54 	21
56.56 	20
56.58 	23
56.6 	19
56.62 	16
56.64 	24
56.66 	14
56.68 	21
56.7 	23
56.72 	20
56.74 	17
56.76 	22
56.78 	26
56.8 	12
56.82 	22
56.84 	18
56.86 	16
56.88 	18
56.9 	23
56.92 	17
56.94 	22
56.96 	23
56.98 	18
57 	21
57.02 	21
57.04 	24
57.06 	28
57.08 	20
57.1 	18
57.12 	21
57.14 	20
57.16 	19
57.18 	20
57.2 	14
57.22 	16
57.24 	16
57.26 	15
57.28 	25
57.3 	22
57.32 	16
57.34 	21
57.36 	11
57.38 	21
57.4 	19
57.42 	22
57.44 	22
57.46 	16
57.48 	16
57.5 	22
57.52 	21
57.54 	17
57.56 	18
57.58 	16
57.6 	19
57.62 	11
57.64 	17
57.66 	28
57.68 	19
57.7 	21
57.72 	13
57.74 	17
57.76 	19
57.78 	26
57.8 	26
57.82 	26
57.84 	15
57.86 	22
57.88 	23
57.9 	19
57.92 	17
57.94 	17
57.96 	19
57.98 	19
58 	11
58.02 	18
58.04 	23
58.06 	20
58.08 	28
58.1 	18
58.12 	17
58.14 	24
58.16 	22
58.18 	26
58.2 	14
58.22 	26
58.24 	18
58.26 	23
58.28 	15
58.3 	24
58.32 	21
58.34 	29
58.36 	16
58.38 	15
58.4 	19
58.42 	7
58.44 	20
58.46 	18
58.48 	13
58.5 	16
58.52 	13
58.54 	15
58.56 	14
58.58 	17
58.6 	14
58.62 	20
58.64 	12
58.66 	21
58.68 	25
58.7 	12
58.72 	13
58.74 	15
58.76 	23
58.78 	9
58.8 	14
58.82 	17
58.84 	15
58.86 	18
58.88 	27
58.9 	12
58.92 	29
58.94 	11
58.96 	20
58.98 	21
59 	18
59.02 	9
59.04 	15
59.06 	20
59.08 	19
59.1 	16
59.12 	22
59.14 	25
59.16 	22
59.18 	17
59.2 	16
59.22 	20
59.24 	18
59.26 	14
59.28 	23
59.3 	11
59.32 	13
59.34 	16
59.36 	14
59.38 	21
59.4 	16
59.42 	22
59.44 	20
59.46 	16
59.48 	16
59.5 	14
59.52 	30
59.54 	17
59.56 	16
59.58 	20
59.6 	21
59.62 	19
59.64 	20
59.66 	19
59.68 	31
59.7 	11
59.72 	23
59.74 	20
59.76 	16
59.78 	18
59.8 	21
59.82 	19
59.84 	19
59.86 	22
59.88 	10
59.9 	12
59.92 	19
59.94 	13
59.96 	15
59.98 	26
60 	25
60.02 	18
60.04 	16
60.06 	14
60.08 	23
60.1 	15
60.12 	21
60.14 	19
60.16 	13
60.18 	18
60.2 	19
60.22 	20
60.24 	17
60.26 	13
60.28 	17
60.3 	21
60.32 	16
60.34 	20
60.36 	12
60.38 	12
60.4 	18
60.42 	20
60.44 	18
60.46 	16
60.48 	16
60.5 	14
60.52 	14
60.54 	15
60.56 	19
60.58 	15
60.6 	18
60.62 	20
60.64 	22
60.66 	15
60.68 	16
60.7 	13
60.72 	17
60.74 	28
60.76 	22
60.78 	18
60.8 	19
60.82 	15
60.84 	14
60.86 	22
60.88 	18
60.9 	16
60.92 	19
60.94 	12
60.96 	22
60.98 	25
61 	18
61.02 	22
61.04 	22
61.06 	22
61.08 	18
61.1 	22
61.12 	12
61.14 	12
61.16 	15
61.18 	25
61.2 	16
61.22 	18
61.24 	18
61.26 	17
61.28 	20
61.3 	15
61.32 	15
61.34 	10
61.36 	11
61.38 	18
61.4 	16
61.42 	14
61.44 	23
61.46 	23
61.48 	18
61.5 	16
61.52 	17
61.54 	20
61.56 	14
61.58 	20
61.6 	32
61.62 	24
61.64 	17
61.66 	20
61.68 	26
61.7 	24
61.72 	16
61.74 	18
61.76 	15
61.78 	20
61.8 	19
61.82 	17
61.84 	13
61.86 	15
61.88 	19
61.9 	19
61.92 	13
61.94 	19
61.96 	18
61.98 	16
62 	22
62.02 	18
62.04 	22
62.06 	15
62.08 	26
62.1 	19
62.12 	15
62.14 	17
62.16 	20
62.18 	19
62.2 	12
62.22 	18
62.24 	17
62.26 	15
62.28 	16
62.3 	15
62.32 	16
62.34 	23
62.36 	14
62.38 	28
62.4 	18
62.42 	19
62.44 	28
62.46 	28
62.48 	20
62.5 	17
62.52 	20
62.54 	12
62.56 	27
62.58 	18
62.6 	26
62.62 	19
62.64 	8
62.66 	12
62.68 	20
62.7 	21
62.72 	18
62.74 	25
62.76 	18
62.78 	19
62.8 	26
62.82 	23
62.84 	16
62.86 	23
62.88 	16
62.9 	20
62.92 	22
62.94 	20
62.96 	28
62.98 	19
63 	17
63.02 	22
63.04 	21
63.06 	25
63.08 	20
63.1 	13
63.12 	21
63.14 	19
63.16 	34
63.18 	26
63.2 	18
63.22 	26
63.24 	33
63.26 	23
63.28 	27
63.3 	20
63.32 	35
63.34 	36
63.36 	24
63.38 	30
63.4 	42
63.42 	26
63.44 	20
63.46 	36
63.48 	31
63.5 	30
63.52 	38
63.54 	43
63.56 	32
63.58 	23
63.6 	36
63.62 	33
63.64 	39
63.66 	43
63.68 	31
63.7 	39
63.72 	26
63.74 	27
63.76 	36
63.78 	26
63.8 	28
63.82 	36
63.84 	26
63.86 	35
63.88 	33
63.9 	23
63.92 	20
63.94 	32
63.96 	26
63.98 	28
64 	23
64.02 	22
64.04 	27
64.06 	26
64.08 	14
64.1 	28
64.12 	23
64.14 	22
64.16 	20
64.18 	20
64.2 	29
64.22 	23
64.24 	22
64.26 	17
64.28 	31
64.3 	19
64.32 	12
64.34 	18
64.36 	17
64.38 	17
64.4 	31
64.42 	15
64.44 	22
64.46 	22
64.48 	32
64.5 	21
64.52 	25
64.54 	22
64.56 	27
64.58 	24
64.6 	25
64.62 	25
64.64 	28
64.66 	26
64.68 	21
64.7 	25
64.72 	20
64.74 	24
64.76 	28
64.78 	14
64.8 	23
64.82 	33
64.84 	33
64.86 	47
64.88 	39
64.9 	44
64.92 	44
64.94 	66
64.96 	87
64.98 	107
65 	152
65.02 	198
65.04 	209
65.06 	243
65.08 	238
65.1 	209
65.12 	173
65.14 	171
65.16 	124
65.18 	138
65.2 	143
65.22 	161
65.24 	159
65.26 	148
65.28 	123
65.3 	117
65.32 	98
65.34 	81
65.36 	55
65.38 	49
65.4 	43
65.42 	25
65.44 	22
65.46 	28
65.48 	33
65.5 	31
65.52 	27
65.54 	25
65.56 	20
65.58 	22
65.6 	20
65.62 	16
65.64 	23
65.66 	23
65.68 	18
65.7 	13
65.72 	16
65.74 	18
65.76 	19
65.78 	29
65.8 	26
65.82 	25
65.84 	24
65.86 	20
65.88 	22
65.9 	30
65.92 	21
65.94 	15
65.96 	31
65.98 	21
66 	16
66.02 	10
66.04 	20
66.06 	15
66.08 	20
66.1 	23
66.12 	24
66.14 	25
66.16 	13
66.18 	18
66.2 	19
66.22 	20
66.24 	17
66.26 	18
66.28 	14
66.3 	25
66.32 	15
66.34 	16
66.36 	22
66.38 	22
66.4 	22
66.42 	26
66.44 	15
66.46 	27
66.48 	16
66.5 	14
66.52 	16
66.54 	19
66.56 	18
66.58 	28
66.6 	23
66.62 	21
66.64 	18
66.66 	20
66.68 	13
66.7 	18
66.72 	12
66.74 	22
66.76 	21
66.78 	21
66.8 	25
66.82 	18
66.84 	23
66.86 	15
66.88 	20
66.9 	16
66.92 	17
66.94 	25
66.96 	12
66.98 	12
67 	13
67.02 	17
67.04 	14
67.06 	22
67.08 	21
67.1 	12
67.12 	21
67.14 	19
67.16 	15
67.18 	21
67.2 	20
67.22 	14
67.24 	21
67.26 	25
67.28 	14
67.3 	22
67.32 	21
67.34 	24
67.36 	18
67.38 	12
67.4 	20
67.42 	20
67.44 	20
67.46 	22
67.48 	17
67.5 	22
67.52 	17
67.54 	16
67.56 	19
67.58 	10
67.6 	20
67.62 	15
67.64 	17
67.66 	17
67.68 	16
67.7 	16
67.72 	24
67.74 	13
67.76 	17
67.78 	28
67.8 	18
67.82 	15
67.84 	12
67.86 	17
67.88 	19
67.9 	7
67.92 	11
67.94 	26
67.96 	17
67.98 	14
68 	19
68.02 	23
68.04 	16
68.06 	14
68.08 	17
68.1 	16
68.12 	19
68.14 	15
68.16 	16
68.18 	14
68.2 	12
68.22 	19
68.24 	18
68.26 	17
68.28 	15
68.3 	21
68.32 	21
68.34 	18
68.36 	19
68.38 	16
68.4 	20
68.42 	13
68.44 	11
68.46 	15
68.48 	23
68.5 	13
68.52 	16
68.54 	23
68.56 	8
68.58 	20
68.6 	14
68.62 	18
68.64 	17
68.66 	15
68.68 	13
68.7 	9
68.72 	20
68.74 	13
68.76 	16
68.78 	15
68.8 	17
68.82 	12
68.84 	15
68.86 	13
68.88 	19
68.9 	16
68.92 	21
68.94 	16
68.96 	24
68.98 	12
69 	22
69.02 	20
69.04 	12
69.06 	21
69.08 	13
69.1 	25
69.12 	18
69.14 	18
69.16 	17
69.18 	20
69.2 	18
69.22 	20
69.24 	18
69.26 	20
69.28 	9
69.3 	17
69.32 	24
69.34 	15
69.36 	13
69.38 	22
69.4 	17
69.42 	16
69.44 	27
69.46 	19
69.48 	19
69.5 	20
69.52 	22
69.54 	16
69.56 	13
69.58 	24
69.6 	15
69.62 	15
69.64 	16
69.66 	25
69.68 	16
69.7 	20
69.72 	20
69.74 	13
69.76 	19
69.78 	10
69.8 	14
69.82 	16
69.84 	24
69.86 	22
69.88 	14
69.9 	22
69.92 	24
69.94 	11
69.96 	20
69.98 	12
70 	22
70.02 	16
70.04 	17
70.06 	20
70.08 	14
70.1 	14
70.12 	16
70.14 	19
70.16 	13
70.18 	13
70.2 	14
70.22 	20
70.24 	23
70.26 	26
70.28 	21
70.3 	22
70.32 	17
70.34 	17
70.36 	19
70.38 	20
70.4 	8
70.42 	22
70.44 	24
70.46 	25
70.48 	16
70.5 	19
70.52 	24
70.54 	15
70.56 	30
70.58 	22
70.6 	18
70.62 	23
70.64 	26
70.66 	21
70.68 	28
70.7 	34
70.72 	34
70.74 	28
70.76 	27
70.78 	24
70.8 	29
70.82 	24
70.84 	39
70.86 	43
70.88 	42
70.9 	41
70.92 	37
70.94 	46
70.96 	35
70.98 	40
71 	39
71.02 	36
71.04 	40
71.06 	43
71.08 	55
71.1 	48
71.12 	33
71.14 	52
71.16 	42
71.18 	47
71.2 	49
71.22 	50
71.24 	38
71.26 	39
71.28 	34
71.3 	43
71.32 	32
71.34 	41
71.36 	33
71.38 	28
71.4 	21
71.42 	25
71.44 	24
71.46 	21
71.48 	22
71.5 	20
71.52 	31
71.54 	12
71.56 	28
71.58 	28
71.6 	24
71.62 	20
71.64 	21
71.66 	32
71.68 	22
71.7 	22
71.72 	23
71.74 	16
71.76 	19
71.78 	27
71.8 	20
71.82 	21
71.84 	15
71.86 	17
71.88 	24
71.9 	21
71.92 	21
71.94 	23
71.96 	19
71.98 	15
72 	24
72.02 	17
72.04 	26
72.06 	25
72.08 	18
72.1 	22
72.12 	11
72.14 	28
72.16 	13
72.18 	22
72.2 	18
72.22 	12
72.24 	19
72.26 	21
72.28 	20
72.3 	16
72.32 	16
72.34 	28
72.36 	13
72.38 	21
72.4 	15
72.42 	22
72.44 	14
72.46 	14
72.48 	14
72.5 	14
72.52 	15
72.54 	16
72.56 	23
72.58 	15
72.6 	14
72.62 	9
72.64 	14
72.66 	15
72.68 	13
72.7 	22
72.72 	20
72.74 	18
72.76 	24
72.78 	14
72.8 	18
72.82 	16
72.84 	24
72.86 	13
72.88 	14
72.9 	30
72.92 	26
72.94 	18
72.96 	25
72.98 	18
73 	17
73.02 	15
73.04 	17
73.06 	28
73.08 	17
73.1 	21
73.12 	18
73.14 	15
73.16 	15
73.18 	24
73.2 	18
73.22 	21
73.24 	19
73.26 	16
73.28 	18
73.3 	22
73.32 	17
73.34 	21
73.36 	19
73.38 	19
73.4 	19
73.42 	12
73.44 	16
73.46 	32
73.48 	16
73.5 	19
73.52 	20
73.54 	15
73.56 	23
73.58 	23
73.6 	18
73.62 	19
73.64 	16
73.66 	15
73.68 	20
73.7 	16
73.72 	17
73.74 	21
73.76 	22
73.78 	21
73.8 	19
73.82 	24
73.84 	16
73.86 	13
73.88 	18
73.9 	23
73.92 	11
73.94 	15
73.96 	18
73.98 	21
74 	19
74.02 	22
74.04 	19
74.06 	16
74.08 	17
74.1 	20
74.12 	26
74.14 	15
74.16 	13
74.18 	23
74.2 	18
74.22 	28
74.24 	17
74.26 	22
74.28 	18
74.3 	16
74.32 	20
74.34 	13
74.36 	23
74.38 	26
74.4 	14
74.42 	15
74.44 	16
74.46 	22
74.48 	20
74.5 	15
74.52 	29
74.54 	13
74.56 	30
74.58 	24
74.6 	21
74.62 	24
74.64 	22
74.66 	12
74.68 	17
74.7 	22
74.72 	26
74.74 	18
74.76 	25
74.78 	21
74.8 	23
74.82 	16
74.84 	28
74.86 	24
74.88 	22
74.9 	21
74.92 	25
74.94 	26
74.96 	20
74.98 	28
75 	29
75.02 	19
75.04 	16
75.06 	17
75.08 	24
75.1 	20
75.12 	19
75.14 	20
75.16 	16
75.18 	15
75.2 	17
75.22 	21
75.24 	14
75.26 	22
75.28 	26
75.3 	13
75.32 	24
75.34 	24
75.36 	20
75.38 	16
75.4 	25
75.42 	23
75.44 	22
75.46 	22
75.48 	15
75.5 	20
75.52 	24
75.54 	29
75.56 	24
75.58 	19
75.6 	17
75.62 	21
75.64 	17
75.66 	28
75.68 	25
75.7 	23
75.72 	25
75.74 	12
75.76 	22
75.78 	21
75.8 	31
75.82 	24
75.84 	16
75.86 	24
75.88 	26
75.9 	29
75.92 	26
75.94 	25
75.96 	35
75.98 	26
76 	23
76.02 	21
76.04 	19
76.06 	25
76.08 	24
76.1 	22
76.12 	29
76.14 	28
76.16 	23
76.18 	25
76.2 	31
76.22 	33
76.24 	29
76.26 	31
76.28 	28
76.3 	28
76.32 	27
76.34 	28
76.36 	19
76.38 	36
76.4 	35
76.42 	26
76.44 	31
76.46 	29
76.48 	33
76.5 	31
76.52 	37
76.54 	46
76.56 	42
76.58 	38
76.6 	47
76.62 	37
76.64 	49
76.66 	40
76.68 	37
76.7 	39
76.72 	45
76.74 	41
76.76 	41
76.78 	31
76.8 	36
76.82 	40
76.84 	36
76.86 	40
76.88 	46
76.9 	37
76.92 	41
76.93999 	45
76.96 	41
76.98 	45
77 	31
77.02 	40
77.04 	38
77.06 	29
77.08 	27
77.1 	28
77.12 	31
77.14 	38
77.16 	33
77.18 	37
77.2 	29
77.22 	43
77.24 	37
77.26 	38
77.28 	28
77.3 	35
77.32 	26
77.34 	24
77.36 	32
77.38 	23
77.4 	32
77.42 	27
77.43999 	38
77.46 	29
77.48 	30
77.5 	28
77.52 	43
77.54 	28
77.56 	37
77.58 	34
77.6 	29
77.62 	40
77.64 	28
77.66 	28
77.68 	36
77.7 	41
77.72 	35
77.74 	37
77.76 	48
77.78 	41
77.8 	53
77.82 	37
77.84 	59
77.86 	58
77.88 	59
77.9 	70
77.92 	52
77.93999 	70
77.96 	89
77.98 	81
78 	109
78.02 	123
78.04 	122
78.06 	182
78.08 	206
78.1 	264
78.12 	316
78.14 	359
78.16 	407
78.18 	387
78.2 	427
78.22 	323
78.24 	255
78.26 	245
78.28 	193
78.3 	197
78.32 	222
78.34 	201
78.36 	241
78.38 	226
78.4 	217
78.42 	210
78.43999 	181
78.46 	176
78.48 	134
78.5 	97
78.52 	99
78.54 	83
78.56 	76
78.58 	59
78.6 	49
78.62 	58
78.64 	47
78.66 	41
78.68 	31
78.7 	34
78.72 	42
78.74 	23
78.76 	23
78.78 	23
78.8 	31
78.82 	23
78.84 	26
78.86 	25
78.88 	17
78.9 	30
78.92 	28
78.93999 	20
78.96 	23
78.98 	32
79 	33
79.02 	22
79.04 	20
79.06 	25
79.08 	27
79.1 	27
79.12 	25
79.14 	25
79.16 	22
79.18 	27
79.2 	21
79.22 	34
79.24 	23
79.26 	22
79.28 	19
79.3 	31
79.32 	21
79.34 	18
79.36 	19
79.38 	24
79.4 	25
79.42 	24
79.43999 	19
79.46 	21
79.48 	23
79.5 	20
79.52 	27
79.54 	20
79.56 	23
79.58 	26
79.6 	26
79.62 	23
79.64 	17
79.66 	19
79.68 	25
79.7 	12
79.72 	18
79.74 	20
79.76 	20
79.78 	25
79.8 	25
79.82 	21
79.84 	20
79.86 	33
79.88 	19
79.9 	29
79.92 	16
79.93999 	16
79.96 	25
79.98 	16
80 	19
80.02 	23
80.04 	17
80.06 	16
80.08 	23
80.1 	22
80.12 	12
80.14 	20
80.16 	22
80.18 	24
80.2 	19
80.22 	28
80.24 	23
80.26 	24
80.28 	14
80.3 	19
80.32 	20
80.34 	16
80.36 	17
80.38 	19
80.4 	23
80.42 	9
80.43999 	18
80.46 	18
80.48 	24
80.5 	19
80.52 	14
80.54 	18
80.56 	20
80.58 	12
80.6 	16
80.62 	24
80.64 	13
80.66 	21
80.68 	17
80.7 	25
80.72 	20
80.74 	26
80.76 	15
80.78 	22
80.8 	19
80.82 	27
80.84 	26
80.86 	20
80.88 	14
80.9 	16
80.92 	14
80.93999 	19
80.96 	17
80.98 	17
81 	14
81.02 	20
81.04 	26
81.06 	17
81.08 	14
81.1 	29
81.12 	20
81.14 	20
81.16 	14
81.18 	17
81.2 	20
81.22 	16
81.24 	24
81.26 	14
81.28 	25
81.3 	16
81.32 	25
81.34 	21
81.36 	20
81.38 	23
81.4 	27
81.42 	15
81.43999 	17
81.46 	18
81.48 	10
81.5 	21
81.52 	20
81.54 	18
81.56 	26
81.58 	24
81.6 	18
81.62 	20
81.64 	13
81.66 	17
81.68 	26
81.7 	17
81.72 	18
81.74 	18
81.76 	19
81.78 	22
81.8 	29
81.82 	20
81.84 	19
81.86 	21
81.88 	19
81.9 	26
81.92 	19
81.93999 	17
81.96 	26
81.98 	27
82 	22
82.02 	27
82.04 	32
82.06 	29
82.08 	28
82.1 	30
82.12 	34
82.14 	30
82.16 	30
82.18 	43
82.2 	34
82.22 	51
82.24 	62
82.26 	63
82.28 	81
82.3 	90
82.32 	104
82.34 	119
82.36 	115
82.38 	117
82.4 	136
82.42 	110
82.43999 	76
82.46 	85
82.48 	73
82.5 	74
82.52 	85
82.54 	89
82.56 	75
82.58 	84
82.6 	90
82.62 	91
82.64 	80
82.66 	69
82.68 	76
82.7 	59
82.72 	49
82.74 	53
82.76 	44
82.78 	35
82.8 	42
82.82 	36
82.84 	39
82.86 	30
82.88 	42
82.9 	28
82.92 	21
82.93999 	23
82.96 	21
82.98 	34
83 	29
83.02 	29
83.04 	27
83.06 	27
83.08 	13
83.1 	30
83.12 	20
83.14 	19
83.16 	22
83.18 	22
83.2 	28
83.22 	22
83.24 	22
83.26 	21
83.28 	14
83.3 	13
83.32 	24
83.34 	22
83.36 	24
83.38 	16
83.4 	16
83.42 	20
83.43999 	20
83.46 	31
83.48 	26
83.5 	22
83.52 	19
83.54 	23
83.56 	13
83.58 	25
83.6 	15
83.62 	19
83.64 	22
83.66 	18
83.68 	31
83.7 	23
83.72 	19
83.74 	15
83.76 	19
83.78 	22
83.8 	23
83.82 	26
83.84 	15
83.86 	17
83.88 	13
83.9 	22
83.92 	16
83.93999 	17
83.96 	19
83.98 	20
84 	12
84.02 	20
84.04 	18
84.06 	14
84.08 	14
84.1 	14
84.12 	11
84.14 	23
84.16 	8
84.18 	19
84.2 	25
84.22 	23
84.24 	18
84.26 	18
84.28 	22
84.3 	23
84.32 	21
84.34 	19
84.36 	15
84.38 	20
84.4 	17
84.42 	21
84.43999 	25
84.46 	18
84.48 	14
84.5 	25
84.52 	19
84.54 	16
84.56 	19
84.58 	13
84.6 	9
84.62 	15
84.64 	23
84.66 	20
84.68 	20
84.7 	25
84.72 	23
84.74 	26
84.76 	14
84.78 	21
84.8 	19
84.82 	17
84.84 	16
84.86 	10
84.88 	14
84.9 	21
84.92 	25
84.93999 	20
84.96 	9
84.98 	13
85 	17
85.02 	14
85.04 	24
85.06 	22
85.08 	27
85.1 	20
85.12 	14
85.14 	15
85.16 	22
85.18 	14
85.2 	15
85.22 	22
85.24 	14
85.26 	25
85.28 	19
85.3 	22
85.32 	15
85.34 	20
85.36 	17
85.38 	21
85.4 	21
85.42 	23
85.43999 	16
85.46 	19
85.48 	24
85.5 	16
85.52 	23
85.54 	17
85.56 	26
85.58 	19
85.6 	15
85.62 	16
85.64 	17
85.66 	21
85.68 	13
85.7 	22
85.72 	24
85.74 	26
85.76 	29
85.78 	9
85.8 	22
85.82 	23
85.84 	18
85.86 	22
85.88 	16
85.9 	17
85.92 	18
85.93999 	17
85.96 	10
85.98 	19
86 	20
86.02 	17
86.04 	24
86.06 	22
86.08 	21
86.1 	13
86.12 	13
86.14 	13
86.16 	18
86.18 	19
86.2 	25
86.22 	14
86.24 	18
86.26 	16
86.28 	14
86.3 	17
86.32 	21
86.34 	17
86.36 	19
86.38 	13
86.4 	16
86.42 	13
86.43999 	20
86.46 	22
86.48 	13
86.5 	20
86.52 	17
86.54 	20
86.56 	17
86.58 	14
86.6 	26
86.62 	26
86.64 	23
86.66 	20
86.68 	17
86.7 	17
86.72 	15
86.74 	25
86.76 	17
86.78 	17
86.8 	15
86.82 	15
86.84 	23
86.86 	17
86.88 	12
86.9 	19
86.92 	13
86.93999 	20
86.96 	21
86.98 	15
87 	12
87.02 	26
87.04 	22
87.06 	16
87.08 	17
87.1 	16
87.12 	16
87.14 	12
87.16 	22
87.18 	22
87.2 	24
87.22 	19
87.24 	23
87.26 	17
87.28 	27
87.3 	23
87.32 	20
87.34 	17
87.36 	19
87.38 	14
87.4 	21
87.42 	15
87.43999 	29
87.46 	25
87.48 	25
87.5 	26
87.52 	21
87.54 	11
87.56 	20
87.58 	23
87.6 	19
87.62 	27
87.64 	22
87.66 	24
87.68 	15
87.7 	27
87.72 	12
87.74 	21
87.76 	14
87.78 	14
87.8 	20
87.82 	7
87.84 	17
87.86 	17
87.88 	21
87.9 	18
87.92 	25
87.93999 	18
87.96 	22
87.98 	18
88 	19
88.02 	17
88.04 	24
88.06 	22
88.08 	11
88.1 	19
88.12 	14
88.14 	17
88.16 	19
88.18 	21
88.2 	18
88.22 	16
88.24 	21
88.26 	16
88.28 	13
88.3 	16
88.32 	16
88.34 	20
88.36 	14
88.38 	22
88.4 	12
88.42 	16
88.43999 	22
88.46 	14
88.48 	15
88.5 	17
88.52 	23
88.54 	17
88.56 	20
88.58 	18
88.6 	24
88.62 	19
88.64 	20
88.66 	19
88.68 	20
88.7 	16
88.72 	19
88.74 	23
88.76 	15
88.78 	20
88.8 	18
88.82 	14
88.84 	21
88.86 	15
88.88 	19
88.9 	14
88.92 	20
88.93999 	15
88.96 	17
88.98 	15
89 	13
89.02 	14
89.04 	18
89.06 	14
89.08 	14
89.1 	16
89.12 	14
89.14 	19
89.16 	18
89.18 	21
89.2 	13
89.22 	21
89.24 	17
89.26 	16
89.28 	14
89.3 	17
89.32 	18
89.34 	14
89.36 	18
89.38 	18
89.4 	20
89.42 	25
89.43999 	13
89.46 	14
89.48 	17
89.5 	12
89.52 	18
89.54 	19
89.56 	28
89.58 	26
89.6 	10
89.62 	15
89.64 	19
89.66 	15
89.68 	17
89.7 	21
89.72 	17
89.74 	15
89.76 	24
89.78 	21
89.8 	14
89.82 	17
89.84 	20
89.86 	16
89.88 	12
89.9 	19
89.92 	22
89.93999 	20
89.96 	15
89.98 	23
90 	15
