15 	28
15.02 	48
15.04 	46
15.06 	37
15.08 	37
15.1 	54
15.12 	51
15.14 	46
15.16 	44
15.18 	49
15.2 	49
15.22 	49
15.24 	46
15.26 	45
15.28 	43
15.3 	54
15.32 	47
15.34 	34
15.36 	58
15.38 	44
15.4 	47
15.42 	50
15.44 	51
15.46 	43
15.48 	44
15.5 	54
15.52 	53
15.54 	47
15.56 	53
15.58 	55
15.6 	53
15.62 	58
15.64 	36
15.66 	46
15.68 	46
15.7 	53
15.72 	56
15.74 	54
15.76 	46
15.78 	45
15.8 	56
15.82 	61
15.84 	48
15.86 	49
15.88 	45
15.9 	61
15.92 	52
15.94 	41
15.96 	55
15.98 	58
16 	54
16.02 	41
16.04 	55
16.06 	49
16.08 	50
16.1 	46
16.12 	50
16.14 	48
16.16 	49
16.18 	47
16.2 	44
16.22 	64
16.24 	48
16.26 	55
16.28 	59
16.3 	49
16.32 	37
16.34 	53
16.36 	44
16.38 	56
16.4 	43
16.42 	51
16.44 	51
16.46 	56
16.48 	55
16.5 	69
16.52 	57
16.54 	51
16.56 	51
16.58 	44
16.6 	54
16.62 	60
16.64 	51
16.66 	64
16.68 	63
16.7 	59
16.72 	70
16.74 	51
16.76 	56
16.78 	53
16.8 	46
16.82 	67
16.84 	67
16.86 	62
16.88 	52
16.9 	61
16.92 	49
16.94 	48
16.96 	46
16.98 	52
17 	57
17.02 	45
17.04 	55
17.06 	53
17.08 	42
17.1 	58
17.12 	45
17.14 	52
17.16 	49
17.18 	54
17.2 	34
17.22 	57
17.24 	55
17.26 	49
17.28 	38
17.3 	48
17.32 	39
17.34 	48
17.36 	36
17.38 	45
17.4 	41
17.42 	48
17.44 	37
17.46 	30
17.48 	44
17.5 	40
17.52 	35
17.54 	27
17.56 	34
17.58 	30
17.6 	37
17.62 	42
17.64 	24
17.66 	35
17.68 	39
17.7 	40
17.72 	44
17.74 	38
17.76 	35
17.78 	30
17.8 	39
17.82 	31
17.84 	27
17.86 	35
17.88 	24
17.9 	39
17.92 	41
17.94 	25
17.96 	34
17.98 	33
18 	25
18.02 	29
18.04 	30
18.06 	30
18.08 	33
18.1 	30
18.12 	15
18.14 	32
18.16 	34
18.18 	30
18.2 	29
18.22 	37
18.24 	38
18.26 	25
18.28 	25
18.3 	29
18.32 	26
18.34 	37
18.36 	26
18.38 	32
18.4 	23
18.42 	31
18.44 	26
18.46 	31
18.48 	27
18.5 	25
18.52 	27
18.54 	33
18.56 	25
18.58 	28
18.6 	31
18.62 	26
18.64 	31
18.66 	33
18.68 	37
18.7 	29
18.72 	22
18.74 	34
18.76 	37
18.78 	25
18.8 	27
18.82 	34
18.84 	35
18.86 	36
18.88 	24
18.9 	20
18.92 	26
18.94 	35
18.96 	32
18.98 	35
19 	28
19.02 	31
19.04 	29
19.06 	42
19.08 	17
19.1 	33
19.12 	28
19.14 	25
19.16 	23
19.18 	38
19.2 	34
19.22 	32
19.24 	27
19.26 	31
19.28 	24
19.3 	35
19.32 	20
19.34 	27
19.36 	39
19.38 	23
19.4 	26
19.42 	25
19.44 	37
19.46 	30
19.48 	31
19.5 	27
19.52 	26
19.54 	30
19.56 	39
19.58 	26
19.6 	22
19.62 	29
19.64 	22
19.66 	28
19.68 	38
19.7 	31
19.72 	27
19.74 	28
19.76 	33
19.78 	38
19.8 	19
19.82 	26
19.84 	30
19.86 	34
19.88 	38
19.9 	25
19.92 	27
19.94 	32
19.96 	32
19.98 	32
20 	32
20.02 	28
20.04 	24
20.06 	28
20.08 	39
20.1 	36
20.12 	43
20.14 	38
20.16 	47
20.18 	37
20.2 	17
20.22 	36
20.24 	34
20.26 	26
20.28 	31
20.3 	33
20.32 	45
20.34 	38
20.36 	29
20.38 	31
20.4 	37
20.42 	33
20.44 	34
20.46 	23
20.48 	27
20.5 	48
20.52 	36
20.54 	30
20.56 	43
20.58 	31
20.6 	46
20.62 	35
20.64 	30
20.66 	46
20.68 	41
20.7 	35
20.72 	42
20.74 	30
20.76 	35
20.78 	50
20.8 	33
20.82 	45
20.84 	46
20.86 	46
20.88 	29
20.9 	41
20.92 	34
20.94 	43
20.96 	29
20.98 	42
21 	33
21.02 	33
21.04 	31
21.06 	39
21.08 	44
21.1 	43
21.12 	39
21.14 	37
21.16 	42
21.18 	43
21.2 	38
21.22 	48
21.24 	38
21.26 	28
21.28 	29
21.3 	31
21.32 	37
21.34 	34
21.36 	38
21.38 	38
21.4 	36
21.42 	43
21.44 	31
21.46 	35
21.48 	35
21.5 	30
21.52 	36
21.54 	32
21.56 	38
21.58 	31
21.6 	33
21.62 	59
21.64 	32
21.66 	28
21.68 	39
21.7 	30
21.72 	46
21.74 	39
21.76 	34
21.78 	42
21.8 	37
21.82 	45
21.84 	32
21.86 	25
21.88 	32
21.9 	34
21.92 	37
21.94 	43
21.96 	33
21.98 	33
22 	36
22.02 	39
22.04 	29
22.06 	41
22.08 	41
22.1 	41
22.12 	29
22.14 	39
22.16 	42
22.18 	35
22.2 	37
22.22 	34
22.24 	47
22.26 	35
22.28 	37
22.3 	42
22.32 	33
22.34 	40
22.36 	40
22.38 	30
22.4 	36
22.42 	36
22.44 	45
22.46 	29
22.48 	47
22.5 	34
22.52 	38
22.54 	41
22.56 	37
22.58 	33
22.6 	34
22.62 	44
22.64 	42
22.66 	35
22.68 	49
22.7 	33
22.72 	47
22.74 	37
22.76 	47
22.78 	28
22.8 	47
22.82 	35
22.84 	42
22.86 	40
22.88 	35
22.9 	41
22.92 	44
22.94 	43
22.96 	44
22.98 	33
23 	29
23.02 	43
23.04 	37
23.06 	39
23.08 	38
23.1 	36
23.12 	34
23.14 	39
23.16 	31
23.18 	30
23.2 	36
23.22 	28
23.24 	35
23.26 	35
23.28 	41
23.3 	34
23.32 	26
23.34 	38
23.36 	31
23.38 	38
23.4 	34
23.42 	27
23.44 	40
23.46 	24
23.48 	28
23.5 	35
23.52 	30
23.54 	38
23.56 	40
23.58 	33
23.6 	32
23.62 	33
23.64 	39
23.66 	28
23.68 	40
23.7 	25
23.72 	27
23.74 	31
23.76 	44
23.78 	31
23.8 	28
23.82 	40
23.84 	33
23.86 	27
23.88 	39
23.9 	28
23.92 	32
23.94 	36
23.96 	26
23.98 	26
24 	32
24.02 	21
24.04 	35
24.06 	29
24.08 	22
24.1 	30
24.12 	23
24.14 	27
24.16 	30
24.18 	29
24.2 	39
24.22 	34
24.24 	21
24.26 	40
24.28 	45
24.3 	28
24.32 	32
24.34 	34
24.36 	31
24.38 	36
24.4 	41
24.42 	35
24.44 	35
24.46 	31
24.48 	35
24.5 	46
24.52 	41
24.54 	40
24.56 	28
24.58 	25
24.6 	44
24.62 	46
24.64 	35
24.66 	32
24.68 	35
24.7 	31
24.72 	33
24.74 	23
24.76 	33
24.78 	28
24.8 	29
24.82 	32
24.84 	36
24.86 	27
24.88 	31
24.9 	28
24.92 	32
24.94 	32
24.96 	28
24.98 	29
25 	32
25.02 	35
25.04 	33
25.06 	31
25.08 	21
25.1 	34
25.12 	20
25.14 	36
25.16 	27
25.18 	29
25.2 	27
25.22 	29
25.24 	30
25.26 	37
25.28 	27
25.3 	33
25.32 	30
25.34 	24
25.36 	26
25.38 	37
25.4 	31
25.42 	28
25.44 	23
25.46 	41
25.48 	24
25.5 	25
25.52 	32
25.54 	23
25.56 	32
25.58 	36
25.6 	31
25.62 	41
25.64 	28
25.66 	31
25.68 	36
25.7 	29
25.72 	34
25.74 	32
25.76 	33
25.78 	31
25.8 	32
25.82 	37
25.84 	40
25.86 	33
25.88 	31
25.9 	27
25.92 	35
25.94 	35
25.96 	34
25.98 	23
26 	30
26.02 	31
26.04 	32
26.06 	29
26.08 	30
26.1 	32
26.12 	29
26.14 	31
26.16 	30
26.18 	33
26.2 	26
26.22 	34
26.24 	29
26.26 	26
26.28 	30
26.3 	30
26.32 	22
26.34 	42
26.36 	28
26.38 	29
26.4 	38
26.42 	43
26.44 	28
26.46 	31
26.48 	28
26.5 	34
26.52 	25
26.54 	39
26.56 	28
26.58 	28
26.6 	31
26.62 	19
26.64 	26
26.66 	24
26.68 	22
26.7 	33
26.72 	31
26.74 	38
26.76 	30
26.78 	28
26.8 	40
26.82 	23
26.84 	33
26.86 	38
26.88 	35
26.9 	29
26.92 	29
26.94 	38
26.96 	33
26.98 	21
27 	28
27.02 	29
27.04 	26
27.06 	28
27.08 	31
27.1 	35
27.12 	30
27.14 	33
27.16 	26
27.18 	34
27.2 	27
27.22 	29
27.24 	25
27.26 	39
27.28 	32
27.3 	23
27.32 	36
27.34 	35
27.36 	28
27.38 	29
27.4 	27
27.42 	30
27.44 	30
27.46 	27
27.48 	28
27.5 	35
27.52 	34
27.54 	31
27.56 	32
27.58 	20
27.6 	27
27.62 	25
27.64 	30
27.66 	23
27.68 	28
27.7 	24
27.72 	28
27.74 	36
27.76 	26
27.78 	27
27.8 	35
27.82 	27
27.84 	18
27.86 	31
27.88 	25
27.9 	31
27.92 	31
27.94 	22
27.96 	27
27.98 	27
28 	28
28.02 	30
28.04 	34
28.06 	21
28.08 	22
28.1 	16
28.12 	28
28.14 	28
28.16 	27
28.18 	22
28.2 	39
28.22 	16
28.24 	30
28.26 	17
28.28 	34
28.3 	25
28.32 	29
28.34 	22
28.36 	40
28.38 	28
28.4 	32
28.42 	28
28.44 	26
28.46 	24
28.48 	21
28.5 	18
28.52 	27
28.54 	30
28.56 	19
28.58 	29
28.6 	28
28.62 	21
28.64 	26
28.66 	22
28.68 	28
28.7 	18
28.72 	28
28.74 	36
28.76 	34
28.78 	24
28.8 	28
28.82 	43
28.84 	23
28.86 	25
28.88 	30
28.9 	33
28.92 	28
28.94 	29
28.96 	33
28.98 	27
29 	31
29.02 	19
29.04 	20
29.06 	26
29.08 	32
29.1 	29
29.12 	25
29.14 	18
29.16 	26
29.18 	32
29.2 	29
29.22 	34
29.24 	24
29.26 	18
29.28 	23
29.3 	33
29.32 	37
29.34 	32
29.36 	26
29.38 	23
29.4 	34
29.42 	25
29.44 	23
29.46 	19
29.48 	30
29.5 	29
29.52 	21
29.54 	26
29.56 	22
29.58 	28
29.6 	24
29.62 	35
29.64 	30
29.66 	27
29.68 	22
29.7 	24
29.72 	33
29.74 	30
29.76 	28
29.78 	29
29.8 	19
29.82 	21
29.84 	23
29.86 	27
29.88 	29
29.9 	35
29.92 	32
29.94 	24
29.96 	34
29.98 	29
30 	26
30.02 	35
30.04 	31
30.06 	29
30.08 	19
30.1 	25
30.12 	27
30.14 	26
30.16 	22
30.18 	29
30.2 	16
30.22 	22
30.24 	20
30.26 	28
30.28 	26
30.3 	23
30.32 	17
30.34 	19
30.36 	26
30.38 	28
30.4 	23
30.42 	36
30.44 	24
30.46 	15
30.48 	35
30.5 	33
30.52 	22
30.54 	23
30.56 	23
30.58 	26
30.6 	38
30.62 	38
30.64 	22
30.66 	21
30.68 	35
30.7 	26
30.72 	30
30.74 	23
30.76 	26
30.78 	18
30.8 	24
30.82 	19
30.84 	19
30.86 	27
30.88 	23
30.9 	35
30.92 	18
30.94 	26
30.96 	29
30.98 	24
31 	27
31.02 	19
31.04 	27
31.06 	29
31.08 	20
31.1 	19
31.12 	29
31.14 	21
31.16 	26
31.18 	34
31.2 	23
31.22 	31
31.24 	29
31.26 	17
31.28 	22
31.3 	29
31.32 	24
31.34 	31
31.36 	34
31.38 	36
31.4 	31
31.42 	29
31.44 	31
31.46 	29
31.48 	27
31.5 	25
31.52 	25
31.54 	32
31.56 	21
31.58 	22
31.6 	24
31.62 	38
31.64 	26
31.66 	24
31.68 	36
31.7 	25
31.72 	21
31.74 	29
31.76 	22
31.78 	33
31.8 	17
31.82 	21
31.84 	19
31.86 	24
31.88 	26
31.9 	27
31.92 	27
31.94 	20
31.96 	26
31.98 	22
32 	23
32.02 	25
32.04 	37
32.06 	21
32.08 	29
32.1 	29
32.12 	21
32.14 	21
32.16 	34
32.18 	19
32.2 	33
32.22 	28
32.24 	30
32.26 	21
32.28 	26
32.3 	28
32.32 	22
32.34 	19
32.36 	22
32.38 	29
32.4 	36
32.42 	24
32.44 	28
32.46 	21
32.48 	19
32.5 	16
32.52 	24
32.54 	21
32.56 	22
32.58 	31
32.6 	26
32.62 	16
32.64 	22
32.66 	19
32.68 	26
32.7 	22
32.72 	24
32.74 	27
32.76 	18
32.78 	17
32.8 	31
32.82 	19
32.84 	19
32.86 	22
32.88 	21
32.9 	19
32.92 	32
32.94 	30
32.96 	28
32.98 	32
33 	36
33.02 	34
33.04 	25
33.06 	25
33.08 	37
33.1 	17
33.12 	23
33.14 	21
33.16 	21
33.18 	31
33.2 	16
33.22 	34
33.24 	31
33.26 	23
33.28 	31
33.3 	28
33.32 	33
33.34 	28
33.36 	28
33.38 	23
33.4 	27
33.42 	21
33.44 	20
33.46 	29
33.48 	25
33.5 	21
33.52 	29
33.54 	25
33.56 	37
33.58 	31
33.6 	24
33.62 	26
33.64 	29
33.66 	21
33.68 	13
33.7 	12
33.72 	20
33.74 	22
33.76 	19
33.78 	25
33.8 	23
33.82 	18
33.84 	24
33.86 	34
33.88 	22
33.9 	16
33.92 	18
33.94 	19
33.96 	25
33.98 	24
34 	26
34.02 	16
34.04 	22
34.06 	28
34.08 	24
34.1 	25
34.12 	30
34.14 	34
34.16 	15
34.18 	28
34.2 	26
34.22 	30
34.24 	18
34.26 	24
34.28 	25
34.3 	19
34.32 	13
34.34 	28
34.36 	25
34.38 	21
34.4 	27
34.42 	24
34.44 	24
34.46 	28
34.48 	23
34.5 	30
34.52 	24
34.54 	32
34.56 	37
34.58 	41
34.6 	40
34.62 	41
34.64 	27
34.66 	28
34.68 	31
34.7 	18
34.72 	26
34.74 	29
34.76 	29
34.78 	30
34.8 	29
34.82 	24
34.84 	22
34.86 	33
34.88 	32
34.9 	42
34.92 	29
34.94 	28
34.96 	39
34.98 	28
35 	34
35.02 	35
35.04 	30
35.06 	35
35.08 	37
35.1 	37
35.12 	51
35.14 	54
35.16 	37
35.18 	60
35.2 	67
35.22 	63
35.24 	61
35.26 	67
35.28 	73
35.3 	76
35.32 	59
35.34 	67
35.36 	80
35.38 	70
35.4 	68
35.42 	63
35.44 	70
35.46 	63
35.48 	66
35.5 	75
35.52 	45
35.54 	65
35.56 	39
35.58 	43
35.6 	45
35.62 	44
35.64 	37
35.66 	37
35.68 	31
35.7 	34
35.72 	34
35.74 	30
35.76 	39
35.78 	40
35.8 	42
35.82 	27
35.84 	32
35.86 	29
35.88 	25
35.9 	34
35.92 	26
35.94 	31
35.96 	34
35.98 	27
36 	29
36.02 	19
36.04 	28
36.06 	27
36.08 	22
36.1 	31
36.12 	35
36.14 	24
36.16 	27
36.18 	21
36.2 	31
36.22 	36
36.24 	23
36.26 	32
36.28 	28
36.3 	33
36.32 	34
36.34 	20
36.36 	37
36.38 	26
36.4 	35
36.42 	26
36.44 	25
36.46 	29
36.48 	28
36.5 	23
36.52 	22
36.54 	34
36.56 	31
36.58 	24
36.6 	26
36.62 	27
36.64 	26
36.66 	21
36.68 	30
36.7 	24
36.72 	30
36.74 	34
36.76 	22
36.78 	27
36.8 	28
36.82 	26
36.84 	28
36.86 	38
36.88 	24
36.9 	26
36.92 	31
36.94 	24
36.96 	25
36.98 	29
37 	21
37.02 	27
37.04 	30
37.06 	36
37.08 	32
37.1 	24
37.12 	32
37.14 	28
37.16 	36
37.18 	28
37.2 	32
37.22 	29
37.24 	26
37.26 	23
37.28 	26
37.3 	27
37.32 	33
37.34 	48
37.36 	15
37.38 	28
37.4 	33
37.42 	25
37.44 	33
37.46 	36
37.48 	38
37.5 	26
37.52 	28
37.54 	28
37.56 	37
37.58 	32
37.6 	36
37.62 	30
37.64 	32
37.66 	42
37.68 	26
37.7 	33
37.72 	26
37.74 	29
37.76 	33
37.78 	30
37.8 	27
37.82 	29
37.84 	32
37.86 	36
37.88 	33
37.9 	37
37.92 	33
37.94 	42
37.96 	34
37.98 	25
38 	37
38.02 	45
38.04 	45
38.06 	50
38.08 	45
38.1 	47
38.12 	67
38.14 	72
38.16 	66
38.18 	61
38.2 	94
38.22 	108
38.24 	131
38.26 	151
38.28 	186
38.3 	244
38.32 	358
38.34 	516
38.36 	687
38.38 	896
38.4 	1086
38.42 	1055
38.44 	979
38.46 	864
38.48 	767
38.5 	824
38.52 	681
38.54 	591
38.56 	419
38.58 	315
38.6 	268
38.62 	212
38.64 	179
38.66 	164
38.68 	149
38.7 	124
38.72 	123
38.74 	97
38.76 	95
38.78 	88
38.8 	73
38.82 	69
38.84 	70
38.86 	84
38.88 	54
38.9 	72
38.92 	55
38.94 	56
38.96 	60
38.98 	63
39 	53
39.02 	57
39.04 	53
39.06 	53
39.08 	53
39.1 	45
39.12 	52
39.14 	43
39.16 	58
39.18 	45
39.2 	49
39.22 	46
39.24 	49
39.26 	50
39.28 	61
39.3 	52
39.32 	57
39.34 	57
39.36 	53
39.38 	37
39.4 	56
39.42 	45
39.44 	40
39.46 	63
39.48 	52
39.5 	42
39.52 	50
39.54 	36
39.56 	56
39.58 	52
39.6 	41
39.62 	45
39.64 	41
39.66 	47
39.68 	65
39.7 	44
39.72 	56
39.74 	58
39.76 	57
39.78 	50
39.8 	45
39.82 	59
39.84 	60
39.86 	63
39.88 	65
39.9 	55
39.92 	77
39.94 	80
39.96 	90
39.98 	93
40 	101
40.02 	105
40.04 	98
40.06 	119
40.08 	141
40.1 	154
40.12 	144
40.14 	179
40.16 	226
40.18 	197
40.2 	212
40.22 	214
40.24 	255
40.26 	252
40.28 	282
40.3 	321
40.32 	349
40.34 	373
40.36 	404
40.38 	385
40.4 	404
40.42 	395
40.44 	435
40.46 	411
40.48 	379
40.5 	392
40.52 	323
40.54 	321
40.56 	308
40.58 	241
40.6 	259
40.62 	191
40.64 	166
40.66 	190
40.68 	162
40.7 	162
40.72 	112
40.74 	99
40.76 	111
40.78 	95
40.8 	79
40.82 	81
40.84 	67
40.86 	80
40.88 	58
40.9 	69
40.92 	72
40.94 	49
40.96 	45
40.98 	49
41 	67
41.02 	50
41.04 	49
41.06 	50
41.08 	46
41.1 	40
41.12 	44
41.14 	42
41.16 	40
41.18 	33
41.2 	40
41.22 	24
41.24 	36
41.26 	35
41.28 	35
41.3 	33
41.32 	36
41.34 	43
41.36 	32
41.38 	33
41.4 	33
41.42 	44
41.44 	38
41.46 	27
41.48 	41
41.5 	31
41.52 	41
41.54 	32
41.56 	29
41.58 	33
41.6 	32
41.62 	34
41.64 	31
41.66 	34
41.68 	26
41.7 	32
41.72 	26
41.74 	29
41.76 	33
41.78 	28
41.8 	31
41.82 	29
41.84 	25
41.86 	36
41.88 	41
41.9 	34
41.92 	37
41.94 	28
41.96 	29
41.98 	42
42 	23
42.02 	32
42.04 	31
42.06 	31
42.08 	38
42.1 	22
42.12 	40
42.14 	25
42.16 	26
42.18 	28
42.2 	31
42.22 	29
42.24 	28
42.26 	26
42.28 	25
42.3 	41
42.32 	26
42.34 	21
42.36 	29
42.38 	28
42.4 	23
42.42 	25
42.44 	26
42.46 	27
42.48 	31
42.5 	36
42.52 	28
42.54 	24
42.56 	24
42.58 	30
42.6 	32
42.62 	29
42.64 	21
42.66 	30
42.68 	33
42.7 	16
42.72 	30
42.74 	22
42.76 	32
42.78 	24
42.8 	18
42.82 	34
42.84 	38
42.86 	16
42.88 	18
42.9 	26
42.92 	29
42.94 	26
42.96 	29
42.98 	34
43 	30
43.02 	22
43.04 	21
43.06 	42
43.08 	20
43.1 	27
43.12 	36
43.14 	35
43.16 	29
43.18 	34
43.2 	33
43.22 	33
43.24 	28
43.26 	33
43.28 	28
43.3 	33
43.32 	29
43.34 	38
43.36 	34
43.38 	26
43.4 	24
43.42 	34
43.44 	39
43.46 	19
43.48 	37
43.5 	30
43.52 	22
43.54 	31
43.56 	28
43.58 	34
43.6 	31
43.62 	39
43.64 	23
43.66 	33
43.68 	16
43.7 	33
43.72 	31
43.74 	15
43.76 	23
43.78 	38
43.8 	20
43.82 	39
43.84 	29
43.86 	28
43.88 	19
43.9 	25
43.92 	26
43.94 	26
43.96 	39
43.98 	30
44 	33
44.02 	35
44.04 	29
44.06 	22
44.08 	28
44.1 	37
44.12 	38
44.14 	27
44.16 	39
44.18 	39
44.2 	40
44.22 	31
44.24 	39
44.26 	53
44.28 	41
44.3 	36
44.32 	44
44.34 	47
44.36 	64
44.38 	64
44.4 	71
44.42 	71
44.44 	94
44.46 	127
44.48 	138
44.5 	181
44.52 	276
44.54 	332
44.56 	445
44.58 	606
44.6 	789
44.62 	970
44.64 	979
44.66 	1012
44.68 	858
44.7 	793
44.72 	689
44.74 	626
44.76 	618
44.78 	536
44.8 	390
44.82 	269
44.84 	222
44.86 	139
44.88 	109
44.9 	83
44.92 	77
44.94 	54
44.96 	57
44.98 	50
45 	46
45.02 	41
45.04 	42
45.06 	26
45.08 	38
45.1 	31
45.12 	39
45.14 	29
45.16 	33
45.18 	36
45.2 	39
45.22 	34
45.24 	38
45.26 	29
45.28 	32
45.3 	35
45.32 	23
45.34 	15
45.36 	28
45.38 	30
45.4 	27
45.42 	29
45.44 	22
45.46 	27
45.48 	22
45.5 	25
45.52 	22
45.54 	17
45.56 	20
45.58 	22
45.6 	30
45.62 	24
45.64 	29
45.66 	24
45.68 	20
45.7 	27
45.72 	27
45.74 	19
45.76 	29
45.78 	25
45.8 	27
45.82 	29
45.84 	26
45.86 	32
45.88 	18
45.9 	27
45.92 	22
45.94 	23
45.96 	21
45.98 	23
46 	27
46.02 	17
46.04 	20
46.06 	27
46.08 	21
46.1 	27
46.12 	15
46.14 	29
46.16 	19
46.18 	18
46.2 	26
46.22 	29
46.24 	18
46.26 	18
46.28 	16
46.3 	24
46.32 	30
46.34 	28
46.36 	24
46.38 	31
46.4 	21
46.42 	14
46.44 	26
46.46 	25
46.48 	31
46.5 	28
46.52 	26
46.54 	25
46.56 	33
46.58 	22
46.6 	37
46.62 	29
46.64 	28
46.66 	22
46.68 	23
46.7 	31
46.72 	27
46.74 	16
46.76 	22
46.78 	20
46.8 	14
46.82 	18
46.84 	26
46.86 	14
46.88 	21
46.9 	20
46.92 	20
46.94 	21
46.96 	16
46.98 	30
47 	16
47.02 	18
47.04 	15
47.06 	27
47.08 	25
47.1 	17
47.12 	26
47.14 	19
47.16 	28
47.18 	24
47.2 	19
47.22 	28
47.24 	32
47.26 	19
47.28 	18
47.3 	31
47.32 	23
47.34 	27
47.36 	26
47.38 	22
47.4 	14
47.42 	24
47.44 	27
47.46 	24
47.48 	20
47.5 	29
47.52 	19
47.54 	23
47.56 	25
47.58 	26
47.6 	26
47.62 	19
47.64 	18
47.66 	21
47.68 	22
47.7 	25
47.72 	16
47.74 	25
47.76 	25
47.78 	26
47.8 	24
47.82 	21
47.84 	21
47.86 	25
47.88 	17
47.9 	28
47.92 	25
47.94 	18
47.96 	23
47.98 	25
48 	26
48.02 	27
48.04 	16
48.06 	18
48.08 	15
48.1 	26
48.12 	22
48.14 	18
48.16 	22
48.18 	26
48.2 	26
48.22 	18
48.24 	23
48.26 	20
48.28 	28
48.3 	31
48.32 	18
48.34 	19
48.36 	20
48.38 	18
48.4 	16
48.42 	24
48.44 	24
48.46 	21
48.48 	20
48.5 	17
48.52 	29
48.54 	17
48.56 	21
48.58 	20
48.6 	27
48.62 	32
48.64 	15
48.66 	28
48.68 	18
48.7 	19
48.72 	19
48.74 	19
48.76 	29
48.78 	26
48.8 	26
48.82 	18
48.84 	17
48.86 	12
48.88 	31
48.9 	17
48.92 	38
48.94 	25
48.96 	22
48.98 	20
49 	19
49.02 	17
49.04 	19
49.06 	24
49.08 	17
49.1 	18
49.12 	18
49.14 	23
49.16 	19
49.18 	24
49.2 	25
49.22 	25
49.24 	20
49.26 	19
49.28 	19
49.3 	23
49.32 	23
49.34 	16
49.36 	15
49.38 	22
49.4 	28
49.42 	16
49.44 	19
49.46 	19
49.48 	10
49.5 	17
49.52 	14
49.54 	9
49.56 	16
49.58 	20
49.6 	28
49.62 	15
49.64 	20
49.66 	14
49.68 	16
49.7 	12
49.72 	15
49.74 	20
49.76 	19
49.78 	12
49.8 	22
49.82 	16
49.84 	23
49.86 	21
49.88 	21
49.9 	27
49.92 	21
49.94 	14
49.96 	14
49.98 	22
50 	21
50.02 	15
50.04 	13
50.06 	19
50.08 	17
50.1 	24
50.12 	19
50.14 	16
50.16 	22
50.18 	21
50.2 	24
50.22 	14
50.24 	22
50.26 	16
50.28 	17
50.3 	25
50.32 	22
50.34 	19
50.36 	19
50.38 	19
50.4 	17
50.42 	23
50.44 	21
50.46 	24
50.48 	25
50.5 	15
50.52 	18
50.54 	24
50.56 	16
50.58 	12
50.6 	12
50.62 	14
50.64 	20
50.66 	18
50.68 	20
50.7 	15
50.72 	15
50.74 	15
50.76 	18
50.78 	25
50.8 	17
50.82 	16
50.84 	19
50.86 	17
50.88 	20
50.9 	17
50.92 	23
50.94 	24
50.96 	24
50.98 	18
51 	19
51.02 	19
51.04 	23
51.06 	23
51.08 	13
51.1 	16
51.12 	17
51.14 	29
51.16 	20
51.18 	12
51.2 	20
51.22 	21
51.24 	16
51.26 	16
51.28 	28
51.3 	29
51.32 	20
51.34 	18
51.36 	14
51.38 	16
51.4 	22
51.42 	21
51.44 	23
51.46 	19
51.48 	22
51.5 	10
51.52 	21
51.54 	17
51.56 	13
51.58 	18
51.6 	21
51.62 	21
51.64 	23
51.66 	26
51.68 	23
51.7 	21
51.72 	18
51.74 	17
51.76 	19
51.78 	21
51.8 	9
51.82 	19
51.84 	15
51.86 	12
51.88 	22
51.9 	15
51.92 	19
51.94 	19
51.96 	19
51.98 	13
52 	16
52.02 	23
52.04 	13
52.06 	20
52.08 	13
52.1 	24
52.12 	25
52.14 	23
52.16 	23
52.18 	26
52.2 	17
52.22 	16
52.24 	22
52.26 	24
52.28 	18
52.3 	16
52.32 	15
52.34 	13
52.36 	19
52.38 	16
52.4 	26
52.42 	18
52.44 	23
52.46 	13
52.48 	27
52.5 	26
52.52 	20
52.54 	24
52.56 	22
52.58 	17
52.6 	19
52.62 	19
52.64 	20
52.66 	12
52.68 	16
52.7 	19
52.72 	25
52.74 	18
52.76 	26
52.78 	23
52.8 	23
52.82 	27
52.84 	22
52.86 	16
52.88 	29
52.9 	29
52.92 	27
52.94 	28
52.96 	36
52.98 	27
53 	36
53.02 	27
53.04 	40
53.06 	27
53.08 	38
53.1 	41
53.12 	50
53.14 	46
53.16 	57
53.18 	44
53.2 	68
53.22 	62
53.24 	58
53.26 	61
53.28 	68
53.3 	60
53.32 	67
53.34 	53
53.36 	58
53.38 	51
53.4 	61
53.42 	54
53.44 	56
53.46 	45
53.48 	30
53.5 	36
53.52 	25
53.54 	36
53.56 	32
53.58 	33
53.6 	29
53.62 	31
53.64 	20
53.66 	41
53.68 	32
53.7 	34
53.72 	33
53.74 	27
53.76 	22
53.78 	20
53.8 	31
53.82 	21
53.84 	25
53.86 	21
53.88 	22
53.9 	20
53.92 	25
53.94 	29
53.96 	22
53.98 	21
54 	16
54.02 	24
54.04 	22
54.06 	20
54.08 	16
54.1 	26
54.12 	24
54.14 	21
54.16 	24
54.18 	18
54.2 	22
54.22 	19
54.24 	13
54.26 	20
54.28 	18
54.3 	23
54.32 	18
54.34 	11
54.36 	16
54.38 	17
54.4 	19
54.42 	13
54.44 	19
54.46 	18
54.48 	10
54.5 	21
54.52 	13
54.54 	18
54.56 	16
54.58 	13
54.6 	20
54.62 	22
54.64 	20
54.66 	12
54.68 	19
54.7 	14
54.72 	17
54.74 	16
54.76 	14
54.78 	16
54.8 	15
54.82 	21
54.84 	17
54.86 	17
54.88 	31
54.9 	22
54.92 	21
54.94 	22
54.96 	11
54.98 	17
55 	13
55.02 	13
55.04 	14
55.06 	17
55.08 	24
55.1 	24
55.12 	23
55.14 	18
55.16 	11
55.18 	23
55.2 	20
55.22 	21
55.24 	13
55.26 	20
55.28 	31
55.3 	13
55.32 	17
55.34 	17
55.36 	14
55.38 	21
55.4 	14
55.42 	15
55.44 	17
55.46 	18
55.48 	15
55.5 	19
55.52 	15
55.54 	19
55.56 	14
55.58 	19
55.6 	24
55.62 	25
55.64 	18
55.66 	20
55.68 	13
55.7 	16
55.72 	14
55.74 	16
55.76 	18
55.78 	16
55.8 	21
55.82 	18
55.84 	18
55.86 	14
55.88 	14
55.9 	18
55.92 	13
55.94 	23
55.96 	18
55.98 	16
56 	19
56.02 	15
56.04 	20
56.06 	18
56.08 	19
56.1 	20
56.12 	17
56.14 	19
56.16 	19
56.18 	16
56.2 	9
56.22 	18
56.24 	14
56.26 	15
56.28 	21
56.3 	18
56.32 	17
56.34 	18
56.36 	17
56.38 	17
56.4 	13
56.42 	17
56.44 	14
56.46 	13
56.48 	21
56.5 	14
56.52 	16
56.54 	17
56.56 	20
56.58 	9
56.6 	16
56.62 	17
56.64 	20
56.66 	19
56.68 	19
56.7 	11
56.72 	24
56.74 	17
56.76 	18
56.78 	16
56.8 	18
56.82 	26
56.84 	20
56.86 	18
56.88 	16
56.9 	25
56.92 	17
56.94 	19
56.96 	22
56.98 	17
57 	15
57.02 	15
57.04 	14
57.06 	18
57.08 	16
57.1 	12
57.12 	20
57.14 	21
57.16 	16
57.18 	19
57.2 	23
57.22 	15
57.24 	13
57.26 	22
57.28 	22
57.3 	15
57.32 	17
57.34 	20
57.36 	21
57.38 	24
57.4 	11
57.42 	24
57.44 	15
57.46 	23
57.48 	16
57.5 	26
57.52 	21
57.54 	19
57.56 	18
57.58 	17
57.6 	19
57.62 	17
57.64 	11
57.66 	18
57.68 	12
57.7 	24
57.72 	18
57.74 	21
57.76 	16
57.78 	9
57.8 	13
57.82 	18
57.84 	19
57.86 	21
57.88 	25
57.9 	17
57.92 	10
57.94 	11
57.96 	20
57.98 	24
58 	14
58.02 	29
58.04 	22
58.06 	19
58.08 	13
58.1 	14
58.12 	26
58.14 	15
58.16 	21
58.18 	20
58.2 	17
58.22 	21
58.24 	10
58.26 	15
58.28 	18
58.3 	17
58.32 	18
58.34 	14
58.36 	16
58.38 	22
58.4 	16
58.42 	18
58.44 	16
58.46 	17
58.48 	14
58.5 	18
58.52 	17
58.54 	9
58.56 	15
58.58 	17
58.6 	23
58.62 	21
58.64 	16
58.66 	16
58.68 	19
58.7 	18
58.72 	11
58.74 	17
58.76 	14
58.78 	21
58.8 	13
58.82 	14
58.84 	15
58.86 	7
58.88 	15
58.9 	15
58.92 	11
58.94 	13
58.96 	17
58.98 	16
59 	18
59.02 	24
59.04 	12
59.06 	15
59.08 	14
59.1 	14
59.12 	15
59.14 	20
59.16 	13
59.18 	14
59.2 	12
59.22 	13
59.24 	15
59.26 	15
59.28 	18
59.3 	18
59.32 	16
59.34 	18
59.36 	20
59.38 	18
59.4 	23
59.42 	13
59.44 	19
59.46 	22
59.48 	18
59.5 	18
59.52 	17
59.54 	15
59.56 	12
59.58 	17
59.6 	14
59.62 	16
59.64 	19
59.66 	14
59.68 	19
59.7 	15
59.72 	20
59.74 	19
59.76 	14
59.78 	11
59.8 	11
59.82 	11
59.84 	16
59.86 	25
59.88 	19
59.9 	20
59.92 	17
59.94 	17
59.96 	21
59.98 	16
60 	13
60.02 	17
60.04 	14
60.06 	18
60.08 	20
60.1 	22
60.12 	22
60.14 	18
60.16 	16
60.18 	21
60.2 	20
60.22 	14
60.24 	18
60.26 	8
60.28 	19
60.3 	13
60.32 	16
60.34 	7
60.36 	15
60.38 	9
60.4 	21
60.42 	20
60.44 	18
60.46 	14
60.48 	25
60.5 	14
60.52 	24
60.54 	13
60.56 	14
60.58 	10
60.6 	18
60.62 	17
60.64 	15
60.66 	9
60.68 	13
60.7 	21
60.72 	17
60.74 	13
60.76 	23
60.78 	21
60.8 	16
60.82 	16
60.84 	16
60.86 	24
60.88 	17
60.9 	24
60.92 	19
60.94 	24
60.96 	14
60.98 	20
61 	20
61.02 	24
61.04 	17
61.06 	11
61.08 	20
61.1 	16
61.12 	16
61.14 	17
61.16 	27
61.18 	16
61.2 	20
61.22 	10
61.24 	17
61.26 	13
61.28 	14
61.3 	20
61.32 	13
61.34 	23
61.36 	20
61.38 	9
61.4 	13
61.42 	16
61.44 	21
61.46 	19
61.48 	16
61.5 	17
61.52 	20
61.54 	18
61.56 	14
61.58 	14
61.6 	15
61.62 	12
61.64 	12
61.66 	14
61.68 	19
61.7 	20
61.72 	20
61.74 	13
61.76 	24
61.78 	15
61.8 	7
61.82 	14
61.84 	13
61.86 	17
61.88 	15
61.9 	15
61.92 	24
61.94 	13
61.96 	21
61.98 	12
62 	9
62.02 	26
62.04 	18
62.06 	20
62.08 	14
62.1 	12
62.12 	16
62.14 	16
62.16 	20
62.18 	15
62.2 	25
62.22 	23
62.24 	20
62.26 	24
62.28 	20
62.3 	15
62.32 	14
62.34 	23
62.36 	23
62.38 	13
62.4 	14
62.42 	27
62.44 	17
62.46 	19
62.48 	16
62.5 	17
62.52 	20
62.54 	16
62.56 	19
62.58 	14
62.6 	30
62.62 	12
62.64 	22
62.66 	18
62.68 	20
62.7 	17
62.72 	20
62.74 	24
62.76 	9
62.78 	19
62.8 	13
62.82 	20
62.84 	17
62.86 	21
62.88 	24
62.9 	24
62.92 	24
62.94 	11
62.96 	23
62.98 	19
63 	16
63.02 	18
63.04 	18
63.06 	33
63.08 	28
63.1 	19
63.12 	22
63.14 	31
63.16 	18
63.18 	24
63.2 	30
63.22 	32
63.24 	32
63.26 	44
63.28 	27
63.3 	25
63.32 	35
63.34 	30
63.36 	37
63.38 	44
63.4 	42
63.42 	37
63.44 	38
63.46 	40
63.48 	50
63.5 	41
63.52 	39
63.54 	46
63.56 	44
63.58 	42
63.6 	33
63.62 	43
63.64 	39
63.66 	42
63.68 	38
63.7 	47
63.72 	36
63.74 	36
63.76 	27
63.78 	20
63.8 	24
63.82 	35
63.84 	41
63.86 	28
63.88 	23
63.9 	27
63.92 	34
63.94 	13
63.96 	21
63.98 	21
64 	23
64.02 	17
64.04 	28
64.06 	23
64.08 	24
64.1 	22
64.12 	20
64.14 	25
64.16 	20
64.18 	19
64.2 	18
64.22 	28
64.24 	15
64.26 	19
64.28 	19
64.3 	18
64.32 	21
64.34 	18
64.36 	18
64.38 	17
64.4 	16
64.42 	19
64.44 	25
64.46 	20
64.48 	18
64.5 	29
64.52 	26
64.54 	22
64.56 	25
64.58 	17
64.6 	22
64.62 	30
64.64 	43
64.66 	32
64.68 	46
64.7 	27
64.72 	35
64.74 	26
64.76 	41
64.78 	47
64.8 	53
64.82 	68
64.84 	72
64.86 	102
64.88 	133
64.9 	153
64.92 	206
64.94 	244
64.96 	312
64.98 	300
65 	348
65.02 	278
65.04 	264
65.06 	189
65.08 	181
65.1 	186
65.12 	201
65.14 	175
65.16 	174
65.18 	191
65.2 	158
65.22 	136
65.24 	106
65.26 	95
65.28 	87
65.3 	51
65.32 	41
65.34 	40
65.36 	39
65.38 	27
65.4 	26
65.42 	32
65.44 	28
65.46 	19
65.48 	25
65.5 	20
65.52 	17
65.54 	13
65.56 	17
65.58 	20
65.6 	20
65.62 	26
65.64 	19
65.66 	27
65.68 	35
65.7 	12
65.72 	19
65.74 	18
65.76 	12
65.78 	27
65.8 	17
65.82 	24
65.84 	16
65.86 	22
65.88 	12
65.9 	14
65.92 	13
65.94 	16
65.96 	15
65.98 	22
66 	20
66.02 	24
66.04 	14
66.06 	16
66.08 	16
66.1 	20
66.12 	14
66.14 	11
66.16 	18
66.18 	14
66.2 	19
66.22 	13
66.24 	20
66.26 	17
66.28 	8
66.3 	13
66.32 	17
66.34 	16
66.36 	16
66.38 	21
66.4 	18
66.42 	21
66.44 	17
66.46 	20
66.48 	17
66.5 	19
66.52 	15
66.54 	14
66.56 	18
66.58 	14
66.6 	11
66.62 	22
66.64 	11
66.66 	21
66.68 	22
66.7 	25
66.72 	18
66.74 	18
66.76 	17
66.78 	19
66.8 	15
66.82 	15
66.84 	18
66.86 	20
66.88 	23
66.9 	14
66.92 	16
66.94 	23
66.96 	16
66.98 	14
67 	12
67.02 	11
67.04 	21
67.06 	16
67.08 	21
67.1 	16
67.12 	8
67.14 	14
67.16 	17
67.18 	10
67.2 	18
67.22 	12
67.24 	19
67.26 	19
67.28 	20
67.3 	18
67.32 	20
67.34 	23
67.36 	22
67.38 	21
67.4 	15
67.42 	15
67.44 	24
67.46 	19
67.48 	17
67.5 	15
67.52 	18
67.54 	16
67.56 	27
67.58 	14
67.6 	17
67.62 	13
67.64 	8
67.66 	12
67.68 	13
67.7 	14
67.72 	23
67.74 	14
67.76 	21
67.78 	23
67.8 	13
67.82 	13
67.84 	14
67.86 	22
67.88 	21
67.9 	14
67.92 	11
67.94 	18
67.96 	18
67.98 	18
68 	18
68.02 	17
68.04 	17
68.06 	16
68.08 	13
68.1 	18
68.12 	20
68.14 	13
68.16 	27
68.18 	17
68.2 	13
68.22 	19
68.24 	18
68.26 	17
68.28 	22
68.3 	18
68.32 	15
68.34 	20
68.36 	16
68.38 	16
68.4 	19
68.42 	17
68.44 	13
68.46 	22
68.48 	15
68.5 	13
68.52 	16
68.54 	14
68.56 	20
68.58 	17
68.6 	19
68.62 	21
68.64 	22
68.66 	15
68.68 	23
68.7 	15
68.72 	9
68.74 	17
68.76 	22
68.78 	13
68.8 	21
68.82 	14
68.84 	18
68.86 	14
68.88 	17
68.9 	12
68.92 	15
68.94 	10
68.96 	18
68.98 	19
69 	19
69.02 	24
69.04 	16
69.06 	21
69.08 	23
69.1 	14
69.12 	18
69.14 	19
69.16 	20
69.18 	26
69.2 	17
69.22 	18
69.24 	16
69.26 	16
69.28 	26
69.3 	17
69.32 	27
69.34 	17
69.36 	21
69.38 	18
69.4 	16
69.42 	17
69.44 	22
69.46 	23
69.48 	22
69.5 	25
69.52 	21
69.54 	13
69.56 	21
69.58 	16
69.6 	26
69.62 	15
69.64 	17
69.66 	13
69.68 	14
69.7 	18
69.72 	8
69.74 	11
69.76 	18
69.78 	12
69.8 	24
69.82 	23
69.84 	22
69.86 	21
69.88 	13
69.9 	21
69.92 	14
69.94 	22
69.96 	18
69.98 	8
70 	18
70.02 	16
70.04 	18
70.06 	12
70.08 	15
70.1 	16
70.12 	19
70.14 	20
70.16 	19
70.18 	12
70.2 	21
70.22 	13
70.24 	16
70.26 	18
70.28 	16
70.3 	19
70.32 	21
70.34 	21
70.36 	16
70.38 	28
70.4 	18
70.42 	22
70.44 	32
70.46 	15
70.48 	19
70.5 	19
70.52 	31
70.54 	26
70.56 	27
70.58 	24
70.6 	26
70.62 	24
70.64 	17
70.66 	25
70.68 	33
70.7 	36
70.72 	44
70.74 	28
70.76 	36
70.78 	38
70.8 	41
70.82 	42
70.84 	49
70.86 	45
70.88 	49
70.9 	48
70.92 	48
70.94 	64
70.96 	71
70.98 	58
71 	64
71.02 	71
71.04 	52
71.06 	74
71.08 	61
71.1 	58
71.12 	78
71.14 	53
71.16 	59
71.18 	60
71.2 	59
71.22 	48
71.24 	61
71.26 	52
71.28 	48
71.3 	41
71.32 	40
71.34 	37
71.36 	42
71.38 	23
71.4 	28
71.42 	29
71.44 	32
71.46 	30
71.48 	30
71.5 	34
71.52 	20
71.54 	30
71.56 	28
71.58 	27
71.6 	33
71.62 	22
71.64 	24
71.66 	20
71.68 	24
71.7 	17
71.72 	25
71.74 	18
71.76 	18
71.78 	18
71.8 	13
71.82 	25
71.84 	16
71.86 	22
71.88 	19
71.9 	22
71.92 	15
71.94 	16
71.96 	16
71.98 	25
72 	19
72.02 	19
72.04 	19
72.06 	16
72.08 	16
72.1 	19
72.12 	17
72.14 	18
72.16 	20
72.18 	14
72.2 	24
72.22 	18
72.24 	16
72.26 	14
72.28 	16
72.3 	11
72.32 	17
72.34 	15
72.36 	8
72.38 	15
72.4 	18
72.42 	22
72.44 	17
72.46 	10
72.48 	14
72.5 	23
72.52 	21
72.54 	14
72.56 	18
72.58 	21
72.6 	17
72.62 	17
72.64 	11
72.66 	16
72.68 	18
72.7 	17
72.72 	23
72.74 	17
72.76 	24
72.78 	16
72.8 	15
72.82 	21
72.84 	16
72.86 	22
72.88 	15
72.9 	12
72.92 	19
72.94 	18
72.96 	19
72.98 	17
73 	18
73.02 	17
73.04 	21
73.06 	22
73.08 	19
73.1 	17
73.12 	13
73.14 	14
73.16 	17
73.18 	22
73.2 	17
73.22 	21
73.24 	14
73.26 	7
73.28 	12
73.3 	14
73.32 	20
73.34 	17
73.36 	15
73.38 	17
73.4 	17
73.42 	22
73.44 	19
73.46 	19
73.48 	18
73.5 	14
73.52 	24
73.54 	14
73.56 	20
73.58 	17
73.6 	13
73.62 	23
73.64 	18
73.66 	20
73.68 	8
73.7 	10
73.72 	20
73.74 	13
73.76 	16
73.78 	17
73.8 	13
73.82 	16
73.84 	18
73.86 	21
73.88 	16
73.9 	15
73.92 	23
73.94 	17
73.96 	15
73.98 	15
74 	23
74.02 	21
74.04 	17
74.06 	21
74.08 	22
74.1 	22
74.12 	20
74.14 	15
74.16 	16
74.18 	17
74.2 	11
74.22 	14
74.24 	11
74.26 	17
74.28 	25
74.3 	21
74.32 	20
74.34 	11
74.36 	27
74.38 	25
74.4 	16
74.42 	20
74.44 	23
74.46 	18
74.48 	19
74.5 	25
74.52 	21
74.54 	25
74.56 	15
74.58 	14
74.6 	26
74.62 	14
74.64 	17
74.66 	20
74.68 	26
74.7 	20
74.72 	25
74.74 	21
74.76 	24
74.78 	30
74.8 	18
74.82 	16
74.84 	17
74.86 	19
74.88 	25
74.9 	26
74.92 	22
74.94 	18
74.96 	15
74.98 	31
75 	18
75.02 	23
75.04 	26
75.06 	11
75.08 	21
75.1 	26
75.12 	26
75.14 	19
75.16 	26
75.18 	17
75.2 	16
75.22 	26
75.24 	21
75.26 	21
75.28 	20
75.3 	19
75.32 	18
75.34 	16
75.36 	18
75.38 	20
75.4 	16
75.42 	10
75.44 	17
75.46 	22
75.48 	18
75.5 	20
75.52 	14
75.54 	23
75.56 	15
75.58 	19
75.6 	18
75.62 	22
75.64 	18
75.66 	16
75.68 	24
75.7 	19
75.72 	24
75.74 	20
75.76 	19
75.78 	22
75.8 	28
75.82 	27
75.84 	19
75.86 	19
75.88 	16
75.9 	20
75.92 	22
75.94 	24
75.96 	16
75.98 	11
76 	19
76.02 	16
76.04 	17
76.06 	22
76.08 	27
76.1 	27
76.12 	17
76.14 	19
76.16 	22
76.18 	18
76.2 	18
76.22 	17
76.24 	27
76.26 	19
76.28 	20
76.3 	28
76.32 	26
76.34 	18
76.36 	28
76.38 	22
76.4 	29
76.42 	28
76.44 	35
76.46 	38
76.48 	31
76.5 	29
76.52 	35
76.54 	37
76.56 	39
76.58 	44
76.6 	39
76.62 	45
76.64 	44
76.66 	38
76.68 	48
76.7 	58
76.72 	57
76.74 	53
76.76 	49
76.78 	50
76.8 	42
76.82 	59
76.84 	55
76.86 	53
76.88 	45
76.9 	61
76.92 	52
76.93999 	50
76.96 	40
76.98 	49
77 	42
77.02 	34
77.04 	45
77.06 	36
77.08 	29
77.1 	36
77.12 	44
77.14 	38
77.16 	37
77.18 	31
77.2 	29
77.22 	24
77.24 	41
77.26 	18
77.28 	42
77.3 	30
77.32 	34
77.34 	25
77.36 	33
77.38 	31
77.4 	30
77.42 	28
77.43999 	39
77.46 	23
77.48 	33
77.5 	38
77.52 	26
77.54 	25
77.56 	33
77.58 	40
77.6 	18
77.62 	36
77.64 	36
77.66 	31
77.68 	34
77.7 	51
77.72 	39
77.74 	42
77.76 	55
77.78 	45
77.8 	51
77.82 	58
77.84 	65
77.86 	78
77.88 	74
77.9 	111
77.92 	106
77.93999 	129
77.96 	165
77.98 	205
78 	224
78.02 	316
78.04 	343
78.06 	365
78.08 	449
78.1 	413
78.12 	406
78.14 	368
78.16 	311
78.18 	260
78.2 	235
78.22 	212
78.24 	209
78.26 	230
78.28 	259
78.3 	235
78.32 	242
78.34 	228
78.36 	207
78.38 	185
78.4 	131
78.42 	126
78.43999 	105
78.46 	90
78.48 	59
78.5 	66
78.52 	43
78.54 	52
78.56 	59
78.58 	32
78.6 	33
78.62 	41
78.64 	37
78.66 	28
78.68 	17
78.7 	24
78.72 	22
78.74 	28
78.76 	20
78.78 	27
78.8 	23
78.82 	19
78.84 	33
78.86 	20
78.88 	18
78.9 	25
78.92 	21
78.93999 	23
78.96 	20
78.98 	28
79 	21
79.02 	15
79.04 	27
79.06 	18
79.08 	15
79.1 	24
79.12 	23
79.14 	28
79.16 	23
79.18 	17
79.2 	21
79.22 	19
79.24 	20
79.26 	19
79.28 	19
79.3 	21
79.32 	16
79.34 	20
79.36 	25
79.38 	18
79.4 	20
79.42 	23
79.43999 	14
79.46 	17
79.48 	21
79.5 	17
79.52 	20
79.54 	22
79.56 	19
79.58 	16
79.6 	26
79.62 	19
79.64 	19
79.66 	18
79.68 	23
79.7 	22
79.72 	14
79.74 	14
79.76 	20
79.78 	25
79.8 	23
79.82 	18
79.84 	25
79.86 	16
79.88 	9
79.9 	14
79.92 	14
79.93999 	19
79.96 	17
79.98 	19
80 	19
80.02 	27
80.04 	21
80.06 	23
80.08 	13
80.1 	11
80.12 	11
80.14 	19
80.16 	15
80.18 	16
80.2 	22
80.22 	11
80.24 	23
80.26 	20
80.28 	18
80.3 	12
80.32 	19
80.34 	23
80.36 	6
80.38 	20
80.4 	12
80.42 	21
80.43999 	24
80.46 	16
80.48 	20
80.5 	24
80.52 	23
80.54 	15
80.56 	19
80.58 	19
80.6 	14
80.62 	17
80.64 	20
80.66 	23
80.68 	25
80.7 	15
80.72 	17
80.74 	11
80.76 	14
80.78 	14
80.8 	16
80.82 	15
80.84 	12
80.86 	18
80.88 	19
80.9 	17
80.92 	11
80.93999 	16
80.96 	19
80.98 	15
81 	17
81.02 	25
81.04 	10
81.06 	23
81.08 	20
81.1 	17
81.12 	19
81.14 	16
81.16 	10
81.18 	10
81.2 	17
81.22 	17
81.24 	16
81.26 	19
81.28 	19
81.3 	19
81.32 	9
81.34 	16
81.36 	8
81.38 	16
81.4 	17
81.42 	16
81.43999 	15
81.46 	22
81.48 	21
81.5 	20
81.52 	18
81.54 	10
81.56 	16
81.58 	25
81.6 	25
81.62 	16
81.64 	17
81.66 	10
81.68 	22
81.7 	16
81.72 	17
81.74 	21
81.76 	14
81.78 	17
81.8 	22
81.82 	21
81.84 	22
81.86 	14
81.88 	18
81.9 	22
81.92 	18
81.93999 	23
81.96 	22
81.98 	30
82 	19
82.02 	29
82.04 	25
82.06 	31
82.08 	28
82.1 	22
82.12 	33
82.14 	37
82.16 	41
82.18 	52
82.2 	47
82.22 	60
82.24 	86
82.26 	79
82.28 	85
82.3 	96
82.32 	86
82.34 	75
82.36 	78
82.38 	65
82.4 	50
82.42 	51
82.43999 	54
82.46 	54
82.48 	50
82.5 	66
82.52 	63
82.54 	57
82.56 	70
82.58 	55
82.6 	48
82.62 	41
82.64 	42
82.66 	41
82.68 	33
82.7 	32
82.72 	26
82.74 	19
82.76 	27
82.78 	29
82.8 	40
82.82 	23
82.84 	20
82.86 	21
82.88 	22
82.9 	27
82.92 	14
82.93999 	26
82.96 	8
82.98 	20
83 	18
83.02 	23
83.04 	23
83.06 	28
83.08 	15
83.1 	12
83.12 	13
83.14 	21
83.16 	14
83.18 	18
83.2 	11
83.22 	13
83.24 	27
83.26 	11
83.28 	15
83.3 	21
83.32 	18
83.34 	10
83.36 	23
83.38 	13
83.4 	19
83.42 	16
83.43999 	9
83.46 	16
83.48 	13
83.5 	17
83.52 	16
83.54 	15
83.56 	18
83.58 	19
83.6 	21
83.62 	12
83.64 	16
83.66 	13
83.68 	12
83.7 	19
83.72 	18
83.74 	11
83.76 	17
83.78 	26
83.8 	14
83.82 	23
83.84 	18
83.86 	14
83.88 	17
83.9 	13
83.92 	17
83.93999 	11
83.96 	27
83.98 	22
84 	22
84.02 	13
84.04 	18
84.06 	22
84.08 	12
84.1 	16
84.12 	12
84.14 	17
84.16 	15
84.18 	17
84.2 	17
84.22 	14
84.24 	15
84.26 	14
84.28 	9
84.3 	15
84.32 	16
84.34 	20
84.36 	15
84.38 	17
84.4 	21
84.42 	17
84.43999 	11
84.46 	15
84.48 	18
84.5 	10
84.52 	17
84.54 	14
84.56 	14
84.58 	17
84.6 	16
84.62 	17
84.64 	18
84.66 	16
84.68 	13
84.7 	16
84.72 	15
84.74 	14
84.76 	16
84.78 	10
84.8 	16
84.82 	21
84.84 	17
84.86 	12
84.88 	13
84.9 	17
84.92 	17
84.93999 	18
84.96 	20
84.98 	12
85 	16
85.02 	18
85.04 	10
85.06 	14
85.08 	18
85.1 	15
85.12 	20
85.14 	7
85.16 	15
85.18 	16
85.2 	13
85.22 	14
85.24 	10
85.26 	9
85.28 	16
85.3 	13
85.32 	26
85.34 	16
85.36 	13
85.38 	16
85.4 	14
85.42 	19
85.43999 	16
85.46 	22
85.48 	16
85.5 	13
85.52 	18
85.54 	16
85.56 	13
85.58 	15
85.6 	22
85.62 	13
85.64 	13
85.66 	14
85.68 	11
85.7 	11
85.72 	18
85.74 	13
85.76 	15
85.78 	20
85.8 	20
85.82 	17
85.84 	14
85.86 	11
85.88 	17
85.9 	19
85.92 	16
85.93999 	13
85.96 	20
85.98 	20
86 	18
86.02 	10
86.04 	12
86.06 	14
86.08 	13
86.1 	16
86.12 	11
86.14 	14
86.16 	13
86.18 	10
86.2 	13
86.22 	14
86.24 	15
86.26 	15
86.28 	16
86.3 	14
86.32 	18
86.34 	13
86.36 	17
86.38 	13
86.4 	8
86.42 	18
86.43999 	21
86.46 	14
86.48 	12
86.5 	16
86.52 	14
86.54 	18
86.56 	17
86.58 	14
86.6 	13
86.62 	18
86.64 	8
86.66 	16
86.68 	17
86.7 	16
86.72 	19
86.74 	15
86.76 	18
86.78 	20
86.8 	14
86.82 	14
86.84 	19
86.86 	11
86.88 	12
86.9 	15
86.92 	15
86.93999 	15
86.96 	25
86.98 	18
87 	15
87.02 	18
87.04 	16
87.06 	18
87.08 	21
87.1 	23
87.12 	11
87.14 	12
87.16 	23
87.18 	28
87.2 	17
87.22 	20
87.24 	21
87.26 	21
87.28 	15
87.3 	14
87.32 	22
87.34 	18
87.36 	20
87.38 	17
87.4 	19
87.42 	27
87.43999 	21
87.46 	27
87.48 	25
87.5 	23
87.52 	23
87.54 	21
87.56 	21
87.58 	31
87.6 	23
87.62 	14
87.64 	17
87.66 	23
87.68 	14
87.7 	18
87.72 	23
87.74 	14
87.76 	13
87.78 	16
87.8 	24
87.82 	15
87.84 	16
87.86 	22
87.88 	25
87.9 	21
87.92 	16
87.93999 	23
87.96 	16
87.98 	14
88 	15
88.02 	17
88.04 	10
88.06 	10
88.08 	7
88.1 	16
88.12 	13
88.14 	17
88.16 	13
88.18 	17
88.2 	15
88.22 	10
88.24 	20
88.26 	10
88.28 	13
88.3 	13
88.32 	22
88.34 	15
88.36 	14
88.38 	15
88.4 	13
88.42 	16
88.43999 	12
88.46 	12
88.48 	16
88.5 	17
88.52 	15
88.54 	17
88.56 	11
88.58 	20
88.6 	18
88.62 	12
88.64 	16
88.66 	22
88.68 	15
88.7 	18
88.72 	14
88.74 	14
88.76 	17
88.78 	22
88.8 	17
88.82 	6
88.84 	15
88.86 	15
88.88 	10
88.9 	15
88.92 	12
88.93999 	16
88.96 	16
88.98 	14
89 	13
89.02 	17
89.04 	17
89.06 	15
89.08 	12
89.1 	14
89.12 	19
89.14 	15
89.16 	7
89.18 	16
89.2 	16
89.22 	11
89.24 	12
89.26 	15
89.28 	16
89.3 	12
89.32 	15
89.34 	16
89.36 	12
89.38 	19
89.4 	14
89.42 	13
89.43999 	13
89.46 	13
89.48 	11
89.5 	9
89.52 	10
89.54 	10
89.56 	12
89.58 	18
89.6 	13
89.62 	16
89.64 	13
89.66 	15
89.68 	12
89.7 	16
89.72 	7
89.74 	17
89.76 	10
89.78 	13
89.8 	17
89.82 	14
89.84 	13
89.86 	17
89.88 	15
89.9 	18
89.92 	19
89.93999 	11
89.96 	14
89.98 	15
90 	16
