15 	43
15.02 	49
15.04 	50
15.06 	51
15.08 	43
15.1 	46
15.12 	44
15.14 	37
15.16 	59
15.18 	57
15.2 	47
15.22 	42
15.24 	53
15.26 	61
15.28 	46
15.3 	49
15.32 	47
15.34 	42
15.36 	50
15.38 	43
15.4 	58
15.42 	52
15.44 	44
15.46 	40
15.48 	41
15.5 	62
15.52 	49
15.54 	45
15.56 	44
15.58 	55
15.6 	64
15.62 	46
15.64 	46
15.66 	39
15.68 	55
15.7 	58
15.72 	52
15.74 	47
15.76 	62
15.78 	53
15.8 	46
15.82 	39
15.84 	53
15.86 	65
15.88 	62
15.9 	47
15.92 	47
15.94 	55
15.96 	62
15.98 	50
16 	64
16.02 	56
16.04 	46
16.06 	47
16.08 	57
16.1 	59
16.12 	60
16.14 	54
16.16 	49
16.18 	47
16.2 	46
16.22 	54
16.24 	46
16.26 	61
16.28 	48
16.3 	49
16.32 	48
16.34 	56
16.36 	54
16.38 	53
16.4 	50
16.42 	56
16.44 	60
16.46 	56
16.48 	45
16.5 	51
16.52 	48
16.54 	69
16.56 	46
16.58 	50
16.6 	51
16.62 	53
16.64 	46
16.66 	47
16.68 	54
16.7 	41
16.72 	43
16.74 	45
16.76 	51
16.78 	48
16.8 	48
16.82 	37
16.84 	47
16.86 	39
16.88 	48
16.9 	41
16.92 	38
16.94 	37
16.96 	55
16.98 	46
17 	52
17.02 	36
17.04 	67
17.06 	55
17.08 	43
17.1 	51
17.12 	45
17.14 	54
17.16 	42
17.18 	39
17.2 	44
17.22 	45
17.24 	47
17.26 	35
17.28 	39
17.3 	36
17.32 	27
17.34 	49
17.36 	40
17.38 	29
17.4 	42
17.42 	41
17.44 	40
17.46 	29
17.48 	26
17.5 	31
17.52 	29
17.54 	28
17.56 	45
17.58 	25
17.6 	36
17.62 	24
17.64 	37
17.66 	31
17.68 	39
17.7 	22
17.72 	30
17.74 	28
17.76 	35
17.78 	22
17.8 	30
17.82 	33
17.84 	15
17.86 	31
17.88 	32
17.9 	26
17.92 	35
17.94 	33
17.96 	26
17.98 	35
18 	36
18.02 	34
18.04 	24
18.06 	33
18.08 	34
18.1 	27
18.12 	30
18.14 	37
18.16 	34
18.18 	43
18.2 	38
18.22 	42
18.24 	23
18.26 	33
18.28 	19
18.3 	28
18.32 	18
18.34 	27
18.36 	28
18.38 	34
18.4 	31
18.42 	36
18.44 	25
18.46 	33
18.48 	29
18.5 	22
18.52 	29
18.54 	22
18.56 	26
18.58 	21
18.6 	22
18.62 	35
18.64 	22
18.66 	28
18.68 	30
18.7 	27
18.72 	29
18.74 	27
18.76 	30
18.78 	28
18.8 	36
18.82 	33
18.84 	31
18.86 	27
18.88 	35
18.9 	32
18.92 	36
18.94 	32
18.96 	31
18.98 	25
19 	25
19.02 	30
19.04 	26
19.06 	32
19.08 	37
19.1 	28
19.12 	33
19.14 	25
19.16 	32
19.18 	30
19.2 	27
19.22 	26
19.24 	31
19.26 	30
19.28 	34
19.3 	28
19.32 	22
19.34 	27
19.36 	24
19.38 	42
19.4 	23
19.42 	28
19.44 	17
19.46 	25
19.48 	23
19.5 	29
19.52 	22
19.54 	41
19.56 	28
19.58 	29
19.6 	36
19.62 	28
19.64 	27
19.66 	29
19.68 	28
19.7 	31
19.72 	33
19.74 	25
19.76 	32
19.78 	34
19.8 	30
19.82 	25
19.84 	24
19.86 	33
19.88 	36
19.9 	28
19.92 	29
19.94 	28
19.96 	37
19.98 	28
20 	16
20.02 	36
20.04 	39
20.06 	24
20.08 	30
20.1 	35
20.12 	22
20.14 	37
20.16 	39
20.18 	29
20.2 	34
20.22 	29
20.24 	39
20.26 	37
20.28 	33
20.3 	29
20.32 	30
20.34 	31
20.36 	30
20.38 	35
20.4 	40
20.42 	27
20.44 	42
20.46 	38
20.48 	28
20.5 	34
20.52 	32
20.54 	34
20.56 	35
20.58 	25
20.6 	29
20.62 	33
20.64 	37
20.66 	23
20.68 	39
20.7 	29
20.72 	25
20.74 	35
20.76 	38
20.78 	31
20.8 	37
20.82 	40
20.84 	40
20.86 	20
20.88 	27
20.9 	32
20.92 	33
20.94 	26
20.96 	34
20.98 	36
21 	33
21.02 	44
21.04 	42
21.06 	46
21.08 	33
21.1 	36
21.12 	36
21.14 	37
21.16 	43
21.18 	36
21.2 	33
21.22 	51
21.24 	28
21.26 	33
21.28 	35
21.3 	36
21.32 	29
21.34 	29
21.36 	25
21.38 	35
21.4 	36
21.42 	29
21.44 	32
21.46 	35
21.48 	32
21.5 	26
21.52 	33
21.54 	41
21.56 	39
21.58 	40
21.6 	28
21.62 	39
21.64 	38
21.66 	56
21.68 	43
21.7 	33
21.72 	41
21.74 	38
21.76 	45
21.78 	31
21.8 	43
21.82 	46
21.84 	35
21.86 	34
21.88 	35
21.9 	32
21.92 	34
21.94 	32
21.96 	39
21.98 	29
22 	31
22.02 	28
22.04 	24
22.06 	28
22.08 	31
22.1 	39
22.12 	34
22.14 	38
22.16 	47
22.18 	29
22.2 	30
22.22 	49
22.24 	37
22.26 	43
22.28 	30
22.3 	29
22.32 	30
22.34 	31
22.36 	33
22.38 	32
22.4 	35
22.42 	34
22.44 	38
22.46 	23
22.48 	28
22.5 	30
22.52 	31
22.54 	32
22.56 	28
22.58 	37
22.6 	32
22.62 	38
22.64 	35
22.66 	38
22.68 	42
22.7 	41
22.72 	32
22.74 	35
22.76 	40
22.78 	37
22.8 	26
22.82 	37
22.84 	34
22.86 	30
22.88 	27
22.9 	36
22.92 	25
22.94 	34
22.96 	31
22.98 	23
23 	31
23.02 	33
23.04 	30
23.06 	29
23.08 	34
23.1 	28
23.12 	30
23.14 	42
23.16 	27
23.18 	20
23.2 	30
23.22 	24
23.24 	36
23.26 	21
23.28 	37
23.3 	25
23.32 	31
23.34 	28
23.36 	27
23.38 	35
23.4 	39
23.42 	28
23.44 	35
23.46 	28
23.48 	26
23.5 	28
23.52 	32
23.54 	42
23.56 	29
23.58 	33
23.6 	32
23.62 	34
23.64 	30
23.66 	42
23.68 	36
23.7 	31
23.72 	42
23.74 	30
23.76 	34
23.78 	37
23.8 	41
23.82 	25
23.84 	31
23.86 	32
23.88 	33
23.9 	35
23.92 	34
23.94 	24
23.96 	39
23.98 	19
24 	29
24.02 	40
24.04 	24
24.06 	37
24.08 	21
24.1 	34
24.12 	25
24.14 	30
24.16 	36
24.18 	32
24.2 	29
24.22 	29
24.24 	31
24.26 	35
24.28 	36
24.3 	30
24.32 	45
24.34 	26
24.36 	27
24.38 	31
24.4 	31
24.42 	25
24.44 	23
24.46 	22
24.48 	33
24.5 	31
24.52 	31
24.54 	29
24.56 	31
24.58 	30
24.6 	36
24.62 	28
24.64 	26
24.66 	42
24.68 	28
24.7 	34
24.72 	35
24.74 	22
24.76 	25
24.78 	31
24.8 	29
24.82 	32
24.84 	28
24.86 	29
24.88 	30
24.9 	28
24.92 	31
24.94 	25
24.96 	32
24.98 	29
25 	27
25.02 	24
25.04 	27
25.06 	25
25.08 	33
25.1 	26
25.12 	31
25.14 	35
25.16 	30
25.18 	30
25.2 	25
25.22 	33
25.24 	33
25.26 	32
25.28 	42
25.3 	29
25.32 	30
25.34 	30
25.36 	33
25.38 	35
25.4 	46
25.42 	31
25.44 	30
25.46 	35
25.48 	28
25.5 	22
25.52 	31
25.54 	32
25.56 	33
25.58 	26
25.6 	26
25.62 	45
25.64 	28
25.66 	25
25.68 	25
25.7 	28
25.72 	37
25.74 	36
25.76 	26
25.78 	35
25.8 	21
25.82 	20
25.84 	24
25.86 	24
25.88 	25
25.9 	20
25.92 	28
25.94 	33
25.96 	21
25.98 	32
26 	30
26.02 	26
26.04 	37
26.06 	19
26.08 	30
26.1 	21
26.12 	35
26.14 	31
26.16 	19
26.18 	26
26.2 	25
26.22 	28
26.24 	32
26.26 	30
26.28 	24
26.3 	25
26.32 	21
26.34 	29
26.36 	22
26.38 	33
26.4 	21
26.42 	35
26.44 	29
26.46 	28
26.48 	31
26.5 	26
26.52 	21
26.54 	37
26.56 	31
26.58 	27
26.6 	29
26.62 	38
26.64 	35
26.66 	33
26.68 	32
26.7 	40
26.72 	26
26.74 	28
26.76 	35
26.78 	28
26.8 	31
26.82 	24
26.84 	36
26.86 	27
26.88 	29
26.9 	26
26.92 	28
26.94 	36
26.96 	23
26.98 	30
27 	23
27.02 	38
27.04 	25
27.06 	20
27.08 	28
27.1 	27
27.12 	28
27.14 	29
27.16 	25
27.18 	27
27.2 	29
27.22 	27
27.24 	21
27.26 	27
27.28 	19
27.3 	34
27.32 	24
27.34 	24
27.36 	20
27.38 	32
27.4 	27
27.42 	38
27.44 	29
27.46 	22
27.48 	30
27.5 	22
27.52 	27
27.54 	20
27.56 	29
27.58 	30
27.6 	34
27.62 	28
27.64 	29
27.66 	22
27.68 	20
27.7 	22
27.72 	37
27.74 	28
27.76 	33
27.78 	25
27.8 	29
27.82 	31
27.84 	34
27.86 	31
27.88 	22
27.9 	30
27.92 	35
27.94 	25
27.96 	19
27.98 	28
28 	33
28.02 	29
28.04 	36
28.06 	32
28.08 	25
28.1 	27
28.12 	29
28.14 	25
28.16 	30
28.18 	28
28.2 	34
28.22 	26
28.24 	31
28.26 	32
28.28 	28
28.3 	25
28.32 	32
28.34 	34
28.36 	36
28.38 	37
28.4 	41
28.42 	24
28.44 	32
28.46 	19
28.48 	23
28.5 	27
28.52 	30
28.54 	28
28.56 	24
28.58 	31
28.6 	30
28.62 	48
28.64 	29
28.66 	32
28.68 	32
28.7 	42
28.72 	28
28.74 	37
28.76 	36
28.78 	28
28.8 	25
28.82 	27
28.84 	30
28.86 	27
28.88 	25
28.9 	27
28.92 	28
28.94 	32
28.96 	34
28.98 	23
29 	28
29.02 	37
29.04 	37
29.06 	26
29.08 	25
29.1 	27
29.12 	27
29.14 	29
29.16 	25
29.18 	18
29.2 	34
29.22 	26
29.24 	34
29.26 	38
29.28 	31
29.3 	39
29.32 	25
29.34 	28
29.36 	25
29.38 	30
29.4 	33
29.42 	28
29.44 	30
29.46 	28
29.48 	40
29.5 	24
29.52 	21
29.54 	30
29.56 	32
29.58 	42
29.6 	24
29.62 	28
29.64 	33
29.66 	26
29.68 	29
29.7 	31
29.72 	28
29.74 	28
29.76 	21
29.78 	24
29.8 	21
29.82 	20
29.84 	29
29.86 	30
29.88 	31
29.9 	32
29.92 	30
29.94 	25
29.96 	30
29.98 	26
30 	37
30.02 	22
30.04 	18
30.06 	31
30.08 	21
30.1 	28
30.12 	30
30.14 	31
30.16 	33
30.18 	34
30.2 	29
30.22 	20
30.24 	37
30.26 	33
30.28 	30
30.3 	22
30.32 	25
30.34 	36
30.36 	37
30.38 	25
30.4 	27
30.42 	33
30.44 	26
30.46 	38
30.48 	33
30.5 	30
30.52 	40
30.54 	23
30.56 	19
30.58 	29
30.6 	17
30.62 	21
30.64 	27
30.66 	17
30.68 	22
30.7 	27
30.72 	29
30.74 	23
30.76 	22
30.78 	32
30.8 	22
30.82 	21
30.84 	23
30.86 	30
30.88 	26
30.9 	31
30.92 	25
30.94 	34
30.96 	21
30.98 	39
31 	19
31.02 	22
31.04 	26
31.06 	23
31.08 	30
31.1 	32
31.12 	27
31.14 	32
31.16 	32
31.18 	32
31.2 	23
31.22 	27
31.24 	29
31.26 	23
31.28 	27
31.3 	25
31.32 	37
31.34 	30
31.36 	15
31.38 	30
31.4 	27
31.42 	35
31.44 	25
31.46 	28
31.48 	21
31.5 	26
31.52 	38
31.54 	31
31.56 	24
31.58 	25
31.6 	23
31.62 	35
31.64 	23
31.66 	25
31.68 	26
31.7 	25
31.72 	30
31.74 	33
31.76 	23
31.78 	23
31.8 	29
31.82 	25
31.84 	27
31.86 	34
31.88 	31
31.9 	27
31.92 	25
31.94 	30
31.96 	24
31.98 	30
32 	24
32.02 	20
32.04 	27
32.06 	21
32.08 	30
32.1 	23
32.12 	21
32.14 	24
32.16 	25
32.18 	26
32.2 	25
32.22 	22
32.24 	28
32.26 	17
32.28 	21
32.3 	28
32.32 	20
32.34 	25
32.36 	21
32.38 	29
32.4 	26
32.42 	30
32.44 	26
32.46 	23
32.48 	26
32.5 	24
32.52 	19
32.54 	21
32.56 	33
32.58 	23
32.6 	22
32.62 	14
32.64 	21
32.66 	28
32.68 	20
32.7 	18
32.72 	28
32.74 	32
32.76 	21
32.78 	23
32.8 	26
32.82 	32
32.84 	25
32.86 	31
32.88 	31
32.9 	36
32.92 	25
32.94 	35
32.96 	31
32.98 	22
33 	24
33.02 	32
33.04 	30
33.06 	34
33.08 	28
33.1 	25
33.12 	23
33.14 	22
33.16 	24
33.18 	22
33.2 	31
33.22 	23
33.24 	25
33.26 	17
33.28 	26
33.3 	21
33.32 	24
33.34 	23
33.36 	29
33.38 	27
33.4 	26
33.42 	29
33.44 	26
33.46 	30
33.48 	37
33.5 	27
33.52 	25
33.54 	33
33.56 	25
33.58 	17
33.6 	35
33.62 	44
33.64 	31
33.66 	23
33.68 	30
33.7 	22
33.72 	22
33.74 	34
33.76 	17
33.78 	20
33.8 	41
33.82 	24
33.84 	20
33.86 	22
33.88 	29
33.9 	18
33.92 	20
33.94 	25
33.96 	29
33.98 	32
34 	35
34.02 	24
34.04 	21
34.06 	26
34.08 	33
34.1 	32
34.12 	27
34.14 	32
34.16 	24
34.18 	23
34.2 	17
34.22 	31
34.24 	13
34.26 	28
34.28 	24
34.3 	24
34.32 	27
34.34 	23
34.36 	32
34.38 	37
34.4 	20
34.42 	20
34.44 	37
34.46 	28
34.48 	35
34.5 	29
34.52 	26
34.54 	23
34.56 	28
34.58 	29
34.6 	35
34.62 	36
34.64 	30
34.66 	38
34.68 	34
34.7 	27
34.72 	37
34.74 	38
34.76 	33
34.78 	29
34.8 	43
34.82 	38
34.84 	40
34.86 	25
34.88 	34
34.9 	32
34.92 	32
34.94 	28
34.96 	24
34.98 	45
35 	51
35.02 	42
35.04 	40
35.06 	50
35.08 	40
35.1 	29
35.12 	44
35.14 	52
35.16 	54
35.18 	58
35.2 	64
35.22 	49
35.24 	48
35.26 	58
35.28 	71
35.3 	86
35.32 	79
35.34 	58
35.36 	71
35.38 	60
35.4 	76
35.42 	81
35.44 	104
35.46 	79
35.48 	80
35.5 	74
35.52 	45
35.54 	67
35.56 	69
35.58 	45
35.6 	74
35.62 	46
35.64 	65
35.66 	56
35.68 	43
35.7 	53
35.72 	53
35.74 	41
35.76 	43
35.78 	36
35.8 	44
35.82 	36
35.84 	40
35.86 	39
35.88 	41
35.9 	37
35.92 	40
35.94 	32
35.96 	33
35.98 	23
36 	36
36.02 	48
36.04 	24
36.06 	29
36.08 	23
36.1 	23
36.12 	33
36.14 	33
36.16 	24
36.18 	31
36.2 	36
36.22 	30
36.24 	28
36.26 	23
36.28 	24
36.3 	42
36.32 	25
36.34 	30
36.36 	34
36.38 	39
36.4 	22
36.42 	20
36.44 	38
36.46 	35
36.48 	34
36.5 	17
36.52 	28
36.54 	31
36.56 	22
36.58 	24
36.6 	24
36.62 	22
36.64 	32
36.66 	20
36.68 	27
36.7 	31
36.72 	31
36.74 	39
36.76 	31
36.78 	30
36.8 	26
36.82 	25
36.84 	30
36.86 	20
36.88 	26
36.9 	28
36.92 	35
36.94 	40
36.96 	36
36.98 	30
37 	38
37.02 	27
37.04 	34
37.06 	43
37.08 	46
37.1 	29
37.12 	23
37.14 	29
37.16 	40
37.18 	33
37.2 	37
37.22 	33
37.24 	34
37.26 	27
37.28 	31
37.3 	34
37.32 	39
37.34 	29
37.36 	38
37.38 	32
37.4 	39
37.42 	41
37.44 	39
37.46 	39
37.48 	45
37.5 	39
37.52 	38
37.54 	30
37.56 	41
37.58 	35
37.6 	34
37.62 	42
37.64 	47
37.66 	31
37.68 	42
37.7 	32
37.72 	37
37.74 	36
37.76 	45
37.78 	41
37.8 	37
37.82 	37
37.84 	46
37.86 	51
37.88 	47
37.9 	57
37.92 	52
37.94 	57
37.96 	57
37.98 	51
38 	60
38.02 	68
38.04 	55
38.06 	71
38.08 	79
38.1 	87
38.12 	111
38.14 	121
38.16 	136
38.18 	157
38.2 	192
38.22 	219
38.24 	266
38.26 	285
38.28 	286
38.3 	310
38.32 	356
38.34 	381
38.36 	436
38.38 	504
38.4 	611
38.42 	676
38.44 	724
38.46 	803
38.48 	716
38.5 	749
38.52 	675
38.54 	651
38.56 	633
38.58 	574
38.6 	525
38.62 	477
38.64 	351
38.66 	350
38.68 	303
38.7 	239
38.72 	219
38.74 	197
38.76 	151
38.78 	129
38.8 	109
38.82 	81
38.84 	69
38.86 	81
38.88 	68
38.9 	53
38.92 	56
38.94 	53
38.96 	60
38.98 	57
39 	57
39.02 	52
39.04 	51
39.06 	35
39.08 	53
39.1 	77
39.12 	74
39.14 	75
39.16 	74
39.18 	60
39.2 	80
39.22 	69
39.24 	68
39.26 	67
39.28 	75
39.3 	59
39.32 	81
39.34 	74
39.36 	65
39.38 	66
39.4 	54
39.42 	72
39.44 	56
39.46 	71
39.48 	60
39.5 	63
39.52 	86
39.54 	53
39.56 	52
39.58 	51
39.6 	68
39.62 	59
39.64 	64
39.66 	54
39.68 	60
39.7 	57
39.72 	46
39.74 	63
39.76 	41
39.78 	51
39.8 	46
39.82 	58
39.84 	54
39.86 	68
39.88 	65
39.9 	51
39.92 	63
39.94 	59
39.96 	78
39.98 	82
40 	82
40.02 	63
40.04 	66
40.06 	110
40.08 	108
40.1 	108
40.12 	117
40.14 	124
40.16 	135
40.18 	145
40.2 	167
40.22 	149
40.24 	166
40.26 	210
40.28 	188
40.3 	209
40.32 	208
40.34 	257
40.36 	274
40.38 	230
40.4 	258
40.42 	286
40.44 	277
40.46 	286
40.48 	279
40.5 	275
40.52 	295
40.54 	266
40.56 	264
40.58 	261
40.6 	273
40.62 	245
40.64 	206
40.66 	207
40.68 	183
40.7 	170
40.72 	169
40.74 	123
40.76 	130
40.78 	106
40.8 	103
40.82 	82
40.84 	75
40.86 	85
40.88 	86
40.9 	67
40.92 	75
40.94 	74
40.96 	47
40.98 	63
41 	45
41.02 	48
41.04 	38
41.06 	55
41.08 	36
41.1 	38
41.12 	37
41.14 	33
41.16 	48
41.18 	34
41.2 	30
41.22 	34
41.24 	41
41.26 	41
41.28 	44
41.3 	32
41.32 	30
41.34 	32
41.36 	41
41.38 	29
41.4 	37
41.42 	30
41.44 	36
41.46 	39
41.48 	33
41.5 	32
41.52 	29
41.54 	32
41.56 	46
41.58 	28
41.6 	28
41.62 	32
41.64 	22
41.66 	29
41.68 	34
41.7 	30
41.72 	19
41.74 	23
41.76 	44
41.78 	40
41.8 	19
41.82 	30
41.84 	32
41.86 	43
41.88 	38
41.9 	30
41.92 	27
41.94 	37
41.96 	35
41.98 	32
42 	43
42.02 	45
42.04 	41
42.06 	40
42.08 	30
42.1 	29
42.12 	36
42.14 	24
42.16 	33
42.18 	38
42.2 	25
42.22 	27
42.24 	39
42.26 	29
42.28 	42
42.3 	26
42.32 	30
42.34 	24
42.36 	31
42.38 	18
42.4 	36
42.42 	32
42.44 	22
42.46 	31
42.48 	30
42.5 	37
42.52 	25
42.54 	30
42.56 	26
42.58 	28
42.6 	24
42.62 	25
42.64 	25
42.66 	31
42.68 	20
42.7 	35
42.72 	34
42.74 	23
42.76 	26
42.78 	25
42.8 	19
42.82 	35
42.84 	26
42.86 	29
42.88 	23
42.9 	33
42.92 	38
42.94 	29
42.96 	20
42.98 	32
43 	28
43.02 	31
43.04 	38
43.06 	33
43.08 	27
43.1 	34
43.12 	35
43.14 	31
43.16 	30
43.18 	27
43.2 	27
43.22 	35
43.24 	34
43.26 	32
43.28 	29
43.3 	40
43.32 	28
43.34 	33
43.36 	34
43.38 	33
43.4 	31
43.42 	26
43.44 	32
43.46 	30
43.48 	28
43.5 	28
43.52 	33
43.54 	30
43.56 	29
43.58 	42
43.6 	25
43.62 	34
43.64 	28
43.66 	29
43.68 	30
43.7 	27
43.72 	20
43.74 	23
43.76 	22
43.78 	24
43.8 	24
43.82 	19
43.84 	30
43.86 	35
43.88 	29
43.9 	38
43.92 	39
43.94 	17
43.96 	34
43.98 	32
44 	28
44.02 	33
44.04 	29
44.06 	38
44.08 	33
44.1 	22
44.12 	29
44.14 	26
44.16 	22
44.18 	41
44.2 	34
44.22 	40
44.24 	36
44.26 	48
44.28 	53
44.3 	50
44.32 	57
44.34 	61
44.36 	72
44.38 	64
44.4 	74
44.42 	93
44.44 	93
44.46 	110
44.48 	139
44.5 	157
44.52 	199
44.54 	210
44.56 	245
44.58 	287
44.6 	337
44.62 	324
44.64 	357
44.66 	393
44.68 	436
44.7 	387
44.72 	367
44.74 	302
44.76 	264
44.78 	257
44.8 	216
44.82 	209
44.84 	164
44.86 	133
44.88 	110
44.9 	68
44.92 	76
44.94 	59
44.96 	58
44.98 	49
45 	27
45.02 	36
45.04 	33
45.06 	29
45.08 	36
45.1 	22
45.12 	29
45.14 	37
45.16 	26
45.18 	35
45.2 	37
45.22 	29
45.24 	25
45.26 	31
45.28 	19
45.3 	27
45.32 	21
45.34 	18
45.36 	20
45.38 	32
45.4 	29
45.42 	29
45.44 	41
45.46 	19
45.48 	32
45.5 	22
45.52 	24
45.54 	24
45.56 	18
45.58 	19
45.6 	25
45.62 	17
45.64 	27
45.66 	29
45.68 	23
45.7 	22
45.72 	30
45.74 	29
45.76 	31
45.78 	27
45.8 	22
45.82 	31
45.84 	18
45.86 	24
45.88 	25
45.9 	24
45.92 	18
45.94 	22
45.96 	25
45.98 	36
46 	22
46.02 	27
46.04 	25
46.06 	23
46.08 	18
46.1 	25
46.12 	20
46.14 	23
46.16 	25
46.18 	23
46.2 	22
46.22 	18
46.24 	25
46.26 	25
46.28 	17
46.3 	24
46.32 	23
46.34 	19
46.36 	20
46.38 	27
46.4 	26
46.42 	19
46.44 	25
46.46 	14
46.48 	33
46.5 	20
46.52 	21
46.54 	24
46.56 	26
46.58 	22
46.6 	26
46.62 	18
46.64 	28
46.66 	19
46.68 	21
46.7 	27
46.72 	24
46.74 	24
46.76 	25
46.78 	27
46.8 	21
46.82 	25
46.84 	16
46.86 	20
46.88 	31
46.9 	23
46.92 	27
46.94 	19
46.96 	21
46.98 	21
47 	19
47.02 	27
47.04 	23
47.06 	39
47.08 	20
47.1 	26
47.12 	22
47.14 	18
47.16 	21
47.18 	27
47.2 	29
47.22 	19
47.24 	19
47.26 	18
47.28 	25
47.3 	18
47.32 	19
47.34 	19
47.36 	34
47.38 	25
47.4 	23
47.42 	26
47.44 	21
47.46 	21
47.48 	32
47.5 	25
47.52 	22
47.54 	15
47.56 	31
47.58 	25
47.6 	23
47.62 	24
47.64 	23
47.66 	19
47.68 	18
47.7 	26
47.72 	25
47.74 	15
47.76 	21
47.78 	21
47.8 	20
47.82 	16
47.84 	25
47.86 	20
47.88 	19
47.9 	27
47.92 	31
47.94 	24
47.96 	26
47.98 	18
48 	15
48.02 	15
48.04 	26
48.06 	19
48.08 	20
48.1 	18
48.12 	11
48.14 	18
48.16 	14
48.18 	20
48.2 	23
48.22 	20
48.24 	19
48.26 	20
48.28 	17
48.3 	18
48.32 	21
48.34 	12
48.36 	30
48.38 	19
48.4 	11
48.42 	26
48.44 	16
48.46 	13
48.48 	17
48.5 	26
48.52 	25
48.54 	19
48.56 	16
48.58 	24
48.6 	18
48.62 	17
48.64 	20
48.66 	30
48.68 	20
48.7 	18
48.72 	24
48.74 	33
48.76 	23
48.78 	24
48.8 	22
48.82 	26
48.84 	32
48.86 	20
48.88 	21
48.9 	17
48.92 	23
48.94 	33
48.96 	22
48.98 	15
49 	17
49.02 	23
49.04 	16
49.06 	26
49.08 	20
49.1 	12
49.12 	18
49.14 	25
49.16 	27
49.18 	20
49.2 	19
49.22 	15
49.24 	23
49.26 	19
49.28 	24
49.3 	32
49.32 	14
49.34 	20
49.36 	15
49.38 	15
49.4 	21
49.42 	17
49.44 	14
49.46 	23
49.48 	22
49.5 	22
49.52 	21
49.54 	22
49.56 	19
49.58 	22
49.6 	21
49.62 	19
49.64 	15
49.66 	18
49.68 	21
49.7 	32
49.72 	11
49.74 	19
49.76 	22
49.78 	18
49.8 	18
49.82 	20
49.84 	23
49.86 	24
49.88 	19
49.9 	16
49.92 	16
49.94 	21
49.96 	18
49.98 	18
50 	19
50.02 	17
50.04 	25
50.06 	22
50.08 	13
50.1 	20
50.12 	21
50.14 	21
50.16 	13
50.18 	15
50.2 	11
50.22 	18
50.24 	13
50.26 	19
50.28 	24
50.3 	17
50.32 	28
50.34 	13
50.36 	19
50.38 	28
50.4 	11
50.42 	23
50.44 	25
50.46 	20
50.48 	20
50.5 	22
50.52 	12
50.54 	17
50.56 	13
50.58 	25
50.6 	19
50.62 	25
50.64 	21
50.66 	22
50.68 	12
50.7 	27
50.72 	24
50.74 	20
50.76 	13
50.78 	16
50.8 	24
50.82 	16
50.84 	16
50.86 	18
50.88 	22
50.9 	10
50.92 	22
50.94 	12
50.96 	10
50.98 	16
51 	25
51.02 	23
51.04 	19
51.06 	23
51.08 	18
51.1 	27
51.12 	16
51.14 	27
51.16 	19
51.18 	21
51.2 	19
51.22 	25
51.24 	18
51.26 	18
51.28 	22
51.3 	16
51.32 	15
51.34 	21
51.36 	21
51.38 	22
51.4 	28
51.42 	16
51.44 	25
51.46 	14
51.48 	11
51.5 	17
51.52 	17
51.54 	11
51.56 	18
51.58 	19
51.6 	8
51.62 	20
51.64 	21
51.66 	13
51.68 	22
51.7 	23
51.72 	22
51.74 	20
51.76 	16
51.78 	28
51.8 	19
51.82 	13
51.84 	22
51.86 	18
51.88 	10
51.9 	22
51.92 	16
51.94 	18
51.96 	26
51.98 	16
52 	21
52.02 	19
52.04 	16
52.06 	19
52.08 	13
52.1 	19
52.12 	22
52.14 	13
52.16 	14
52.18 	15
52.2 	20
52.22 	14
52.24 	23
52.26 	30
52.28 	20
52.3 	24
52.32 	14
52.34 	25
52.36 	24
52.38 	17
52.4 	18
52.42 	13
52.44 	21
52.46 	24
52.48 	31
52.5 	25
52.52 	19
52.54 	21
52.56 	13
52.58 	22
52.6 	19
52.62 	22
52.64 	21
52.66 	20
52.68 	24
52.7 	19
52.72 	28
52.74 	25
52.76 	24
52.78 	26
52.8 	26
52.82 	26
52.84 	25
52.86 	27
52.88 	27
52.9 	20
52.92 	21
52.94 	33
52.96 	29
52.98 	25
53 	32
53.02 	35
53.04 	31
53.06 	30
53.08 	21
53.1 	45
53.12 	29
53.14 	31
53.16 	34
53.18 	50
53.2 	62
53.22 	49
53.24 	48
53.26 	47
53.28 	48
53.3 	42
53.32 	69
53.34 	61
53.36 	58
53.38 	67
53.4 	67
53.42 	60
53.44 	68
53.46 	51
53.48 	68
53.5 	45
53.52 	52
53.54 	44
53.56 	35
53.58 	47
53.6 	31
53.62 	40
53.64 	39
53.66 	36
53.68 	36
53.7 	29
53.72 	22
53.74 	32
53.76 	29
53.78 	28
53.8 	32
53.82 	32
53.84 	19
53.86 	27
53.88 	21
53.9 	35
53.92 	37
53.94 	27
53.96 	22
53.98 	21
54 	18
54.02 	19
54.04 	17
54.06 	21
54.08 	12
54.1 	15
54.12 	23
54.14 	27
54.16 	23
54.18 	10
54.2 	23
54.22 	20
54.24 	15
54.26 	20
54.28 	27
54.3 	16
54.32 	21
54.34 	19
54.36 	10
54.38 	17
54.4 	25
54.42 	20
54.44 	19
54.46 	20
54.48 	16
54.5 	26
54.52 	25
54.54 	18
54.56 	29
54.58 	23
54.6 	25
54.62 	17
54.64 	20
54.66 	14
54.68 	27
54.7 	15
54.72 	10
54.74 	12
54.76 	23
54.78 	17
54.8 	15
54.82 	16
54.84 	19
54.86 	20
54.88 	27
54.9 	18
54.92 	21
54.94 	20
54.96 	14
54.98 	20
55 	17
55.02 	21
55.04 	15
55.06 	13
55.08 	19
55.1 	23
55.12 	14
55.14 	22
55.16 	15
55.18 	23
55.2 	11
55.22 	12
55.24 	20
55.26 	18
55.28 	13
55.3 	17
55.32 	24
55.34 	26
55.36 	26
55.38 	17
55.4 	18
55.42 	25
55.44 	15
55.46 	19
55.48 	25
55.5 	21
55.52 	20
55.54 	13
55.56 	22
55.58 	13
55.6 	25
55.62 	21
55.64 	24
55.66 	20
55.68 	11
55.7 	11
55.72 	20
55.74 	25
55.76 	18
55.78 	13
55.8 	22
55.82 	16
55.84 	23
55.86 	15
55.88 	19
55.9 	23
55.92 	15
55.94 	19
55.96 	20
55.98 	23
56 	19
56.02 	17
56.04 	23
56.06 	16
56.08 	19
56.1 	12
56.12 	19
56.14 	17
56.16 	21
56.18 	21
56.2 	21
56.22 	24
56.24 	15
56.26 	18
56.28 	14
56.3 	18
56.32 	16
56.34 	17
56.36 	27
56.38 	28
56.4 	19
56.42 	17
56.44 	19
56.46 	21
56.48 	14
56.5 	20
56.52 	27
56.54 	20
56.56 	25
56.58 	17
56.6 	13
56.62 	22
56.64 	16
56.66 	23
56.68 	24
56.7 	25
56.72 	28
56.74 	21
56.76 	17
56.78 	15
56.8 	19
56.82 	18
56.84 	21
56.86 	18
56.88 	20
56.9 	16
56.92 	18
56.94 	21
56.96 	23
56.98 	20
57 	25
57.02 	26
57.04 	22
57.06 	27
57.08 	25
57.1 	18
57.12 	17
57.14 	12
57.16 	24
57.18 	23
57.2 	23
57.22 	23
57.24 	24
57.26 	19
57.28 	15
57.3 	29
57.32 	32
57.34 	21
57.36 	18
57.38 	23
57.4 	17
57.42 	27
57.44 	21
57.46 	20
57.48 	18
57.5 	29
57.52 	19
57.54 	29
57.56 	22
57.58 	18
57.6 	24
57.62 	27
57.64 	20
57.66 	22
57.68 	15
57.7 	26
57.72 	13
57.74 	17
57.76 	19
57.78 	10
57.8 	21
57.82 	15
57.84 	27
57.86 	17
57.88 	12
57.9 	14
57.92 	20
57.94 	23
57.96 	19
57.98 	22
58 	20
58.02 	10
58.04 	25
58.06 	17
58.08 	21
58.1 	17
58.12 	14
58.14 	21
58.16 	15
58.18 	13
58.2 	18
58.22 	21
58.24 	15
58.26 	15
58.28 	13
58.3 	25
58.32 	16
58.34 	24
58.36 	30
58.38 	18
58.4 	18
58.42 	21
58.44 	15
58.46 	14
58.48 	21
58.5 	13
58.52 	18
58.54 	19
58.56 	15
58.58 	16
58.6 	17
58.62 	14
58.64 	18
58.66 	11
58.68 	13
58.7 	6
58.72 	16
58.74 	15
58.76 	18
58.78 	17
58.8 	18
58.82 	15
58.84 	17
58.86 	21
58.88 	20
58.9 	14
58.92 	23
58.94 	20
58.96 	24
58.98 	13
59 	15
59.02 	13
59.04 	16
59.06 	30
59.08 	18
59.1 	19
59.12 	21
59.14 	16
59.16 	25
59.18 	25
59.2 	18
59.22 	14
59.24 	21
59.26 	19
59.28 	18
59.3 	9
59.32 	10
59.34 	18
59.36 	22
59.38 	12
59.4 	9
59.42 	6
59.44 	13
59.46 	15
59.48 	6
59.5 	24
59.52 	13
59.54 	19
59.56 	14
59.58 	17
59.6 	13
59.62 	20
59.64 	19
59.66 	19
59.68 	14
59.7 	23
59.72 	10
59.74 	16
59.76 	16
59.78 	20
59.8 	20
59.82 	13
59.84 	21
59.86 	14
59.88 	14
59.9 	17
59.92 	19
59.94 	23
59.96 	19
59.98 	17
60 	13
60.02 	15
60.04 	14
60.06 	24
60.08 	20
60.1 	18
60.12 	22
60.14 	18
60.16 	22
60.18 	17
60.2 	16
60.22 	16
60.24 	18
60.26 	19
60.28 	18
60.3 	20
60.32 	22
60.34 	17
60.36 	27
60.38 	13
60.4 	21
60.42 	11
60.44 	24
60.46 	17
60.48 	26
60.5 	22
60.52 	16
60.54 	18
60.56 	20
60.58 	16
60.6 	19
60.62 	28
60.64 	13
60.66 	15
60.68 	17
60.7 	17
60.72 	18
60.74 	20
60.76 	21
60.78 	17
60.8 	25
60.82 	11
60.84 	17
60.86 	14
60.88 	16
60.9 	21
60.92 	25
60.94 	24
60.96 	18
60.98 	12
61 	20
61.02 	15
61.04 	13
61.06 	18
61.08 	17
61.1 	21
61.12 	15
61.14 	21
61.16 	22
61.18 	22
61.2 	21
61.22 	17
61.24 	22
61.26 	12
61.28 	11
61.3 	13
61.32 	20
61.34 	16
61.36 	20
61.38 	22
61.4 	13
61.42 	27
61.44 	23
61.46 	20
61.48 	17
61.5 	17
61.52 	16
61.54 	17
61.56 	18
61.58 	21
61.6 	21
61.62 	17
61.64 	19
61.66 	17
61.68 	17
61.7 	14
61.72 	15
61.74 	16
61.76 	19
61.78 	14
61.8 	16
61.82 	15
61.84 	13
61.86 	14
61.88 	17
61.9 	17
61.92 	12
61.94 	16
61.96 	23
61.98 	11
62 	16
62.02 	19
62.04 	12
62.06 	22
62.08 	13
62.1 	17
62.12 	17
62.14 	19
62.16 	17
62.18 	17
62.2 	20
62.22 	24
62.24 	24
62.26 	20
62.28 	16
62.3 	22
62.32 	12
62.34 	24
62.36 	20
62.38 	13
62.4 	13
62.42 	24
62.44 	19
62.46 	19
62.48 	27
62.5 	22
62.52 	21
62.54 	18
62.56 	25
62.58 	18
62.6 	19
62.62 	19
62.64 	30
62.66 	16
62.68 	19
62.7 	21
62.72 	24
62.74 	29
62.76 	19
62.78 	20
62.8 	18
62.82 	28
62.84 	28
62.86 	17
62.88 	21
62.9 	23
62.92 	16
62.94 	25
62.96 	30
62.98 	22
63 	36
63.02 	27
63.04 	24
63.06 	25
63.08 	27
63.1 	24
63.12 	30
63.14 	25
63.16 	30
63.18 	39
63.2 	35
63.22 	30
63.24 	30
63.26 	40
63.28 	32
63.3 	25
63.32 	39
63.34 	37
63.36 	41
63.38 	55
63.4 	50
63.42 	50
63.44 	48
63.46 	56
63.48 	61
63.5 	60
63.52 	71
63.54 	66
63.56 	69
63.58 	51
63.6 	61
63.62 	78
63.64 	60
63.66 	78
63.68 	68
63.7 	51
63.72 	70
63.74 	78
63.76 	71
63.78 	55
63.8 	59
63.82 	71
63.84 	55
63.86 	59
63.88 	51
63.9 	35
63.92 	33
63.94 	33
63.96 	33
63.98 	31
64 	40
64.02 	32
64.04 	20
64.06 	29
64.08 	26
64.1 	29
64.12 	29
64.14 	42
64.16 	31
64.18 	22
64.2 	24
64.22 	30
64.24 	25
64.26 	30
64.28 	27
64.3 	23
64.32 	24
64.34 	17
64.36 	24
64.38 	28
64.4 	22
64.42 	29
64.44 	21
64.46 	23
64.48 	23
64.5 	18
64.52 	20
64.54 	29
64.56 	27
64.58 	31
64.6 	41
64.62 	33
64.64 	30
64.66 	30
64.68 	31
64.7 	47
64.72 	37
64.74 	55
64.76 	47
64.78 	41
64.8 	59
64.82 	64
64.84 	62
64.86 	65
64.88 	88
64.9 	83
64.92 	96
64.94 	104
64.96 	114
64.98 	117
65 	117
65.02 	133
65.04 	140
65.06 	111
65.08 	121
65.1 	90
65.12 	112
65.14 	115
65.16 	107
65.18 	90
65.2 	80
65.22 	77
65.24 	69
65.26 	75
65.28 	65
65.3 	42
65.32 	28
65.34 	32
65.36 	34
65.38 	31
65.4 	33
65.42 	24
65.44 	20
65.46 	30
65.48 	22
65.5 	29
65.52 	31
65.54 	25
65.56 	24
65.58 	18
65.6 	22
65.62 	29
65.64 	35
65.66 	15
65.68 	23
65.7 	23
65.72 	19
65.74 	18
65.76 	17
65.78 	21
65.8 	16
65.82 	19
65.84 	18
65.86 	16
65.88 	19
65.9 	8
65.92 	22
65.94 	21
65.96 	27
65.98 	12
66 	17
66.02 	17
66.04 	16
66.06 	17
66.08 	15
66.1 	16
66.12 	18
66.14 	11
66.16 	23
66.18 	12
66.2 	16
66.22 	13
66.24 	24
66.26 	13
66.28 	21
66.3 	15
66.32 	20
66.34 	17
66.36 	21
66.38 	17
66.4 	15
66.42 	14
66.44 	14
66.46 	19
66.48 	26
66.5 	18
66.52 	18
66.54 	25
66.56 	16
66.58 	14
66.6 	16
66.62 	11
66.64 	16
66.66 	15
66.68 	12
66.7 	16
66.72 	16
66.74 	21
66.76 	16
66.78 	13
66.8 	18
66.82 	16
66.84 	15
66.86 	22
66.88 	19
66.9 	12
66.92 	15
66.94 	24
66.96 	22
66.98 	19
67 	11
67.02 	17
67.04 	11
67.06 	22
67.08 	19
67.1 	18
67.12 	17
67.14 	9
67.16 	22
67.18 	25
67.2 	18
67.22 	11
67.24 	14
67.26 	13
67.28 	21
67.3 	18
67.32 	19
67.34 	17
67.36 	14
67.38 	22
67.4 	28
67.42 	15
67.44 	18
67.46 	23
67.48 	23
67.5 	17
67.52 	25
67.54 	16
67.56 	18
67.58 	15
67.6 	33
67.62 	13
67.64 	20
67.66 	16
67.68 	11
67.7 	18
67.72 	20
67.74 	20
67.76 	18
67.78 	23
67.8 	19
67.82 	10
67.84 	19
67.86 	16
67.88 	8
67.9 	16
67.92 	20
67.94 	12
67.96 	10
67.98 	17
68 	18
68.02 	20
68.04 	19
68.06 	19
68.08 	14
68.1 	20
68.12 	24
68.14 	21
68.16 	17
68.18 	27
68.2 	22
68.22 	15
68.24 	26
68.26 	19
68.28 	10
68.3 	19
68.32 	19
68.34 	25
68.36 	16
68.38 	18
68.4 	16
68.42 	17
68.44 	17
68.46 	15
68.48 	14
68.5 	20
68.52 	16
68.54 	15
68.56 	18
68.58 	17
68.6 	16
68.62 	17
68.64 	12
68.66 	28
68.68 	18
68.7 	17
68.72 	15
68.74 	14
68.76 	19
68.78 	20
68.8 	13
68.82 	16
68.84 	16
68.86 	22
68.88 	24
68.9 	23
68.92 	24
68.94 	25
68.96 	24
68.98 	14
69 	29
69.02 	16
69.04 	14
69.06 	18
69.08 	24
69.1 	17
69.12 	17
69.14 	31
69.16 	21
69.18 	11
69.2 	16
69.22 	21
69.24 	19
69.26 	23
69.28 	16
69.3 	20
69.32 	22
69.34 	25
69.36 	27
69.38 	29
69.4 	27
69.42 	23
69.44 	26
69.46 	28
69.48 	24
69.5 	15
69.52 	24
69.54 	20
69.56 	21
69.58 	24
69.6 	23
69.62 	13
69.64 	10
69.66 	17
69.68 	14
69.7 	17
69.72 	13
69.74 	23
69.76 	17
69.78 	19
69.8 	20
69.82 	15
69.84 	14
69.86 	24
69.88 	27
69.9 	33
69.92 	24
69.94 	22
69.96 	21
69.98 	12
70 	19
70.02 	17
70.04 	16
70.06 	21
70.08 	17
70.1 	23
70.12 	12
70.14 	16
70.16 	24
70.18 	12
70.2 	20
70.22 	12
70.24 	27
70.26 	22
70.28 	27
70.3 	21
70.32 	19
70.34 	30
70.36 	26
70.38 	16
70.4 	22
70.42 	24
70.44 	32
70.46 	21
70.48 	22
70.5 	34
70.52 	33
70.54 	27
70.56 	24
70.58 	26
70.6 	28
70.62 	31
70.64 	32
70.66 	31
70.68 	24
70.7 	43
70.72 	37
70.74 	38
70.76 	45
70.78 	42
70.8 	44
70.82 	40
70.84 	44
70.86 	49
70.88 	63
70.9 	56
70.92 	50
70.94 	59
70.96 	61
70.98 	64
71 	66
71.02 	67
71.04 	78
71.06 	72
71.08 	69
71.1 	92
71.12 	69
71.14 	77
71.16 	60
71.18 	63
71.2 	69
71.22 	58
71.24 	62
71.26 	60
71.28 	51
71.3 	48
71.32 	66
71.34 	42
71.36 	48
71.38 	43
71.4 	53
71.42 	28
71.44 	35
71.46 	38
71.48 	33
71.5 	28
71.52 	33
71.54 	33
71.56 	38
71.58 	32
71.6 	26
71.62 	29
71.64 	32
71.66 	27
71.68 	26
71.7 	32
71.72 	22
71.74 	35
71.76 	24
71.78 	30
71.8 	18
71.82 	16
71.84 	31
71.86 	22
71.88 	28
71.9 	19
71.92 	19
71.94 	20
71.96 	22
71.98 	29
72 	22
72.02 	23
72.04 	25
72.06 	33
72.08 	20
72.1 	27
72.12 	25
72.14 	29
72.16 	27
72.18 	19
72.2 	21
72.22 	28
72.24 	12
72.26 	19
72.28 	26
72.3 	21
72.32 	22
72.34 	16
72.36 	21
72.38 	19
72.4 	19
72.42 	16
72.44 	17
72.46 	16
72.48 	28
72.5 	15
72.52 	13
72.54 	18
72.56 	23
72.58 	19
72.6 	22
72.62 	16
72.64 	18
72.66 	19
72.68 	18
72.7 	23
72.72 	18
72.74 	19
72.76 	17
72.78 	9
72.8 	12
72.82 	24
72.84 	18
72.86 	15
72.88 	29
72.9 	20
72.92 	25
72.94 	14
72.96 	17
72.98 	18
73 	26
73.02 	23
73.04 	20
73.06 	25
73.08 	19
73.1 	12
73.12 	14
73.14 	16
73.16 	19
73.18 	16
73.2 	21
73.22 	23
73.24 	12
73.26 	17
73.28 	22
73.3 	12
73.32 	25
73.34 	16
73.36 	22
73.38 	22
73.4 	16
73.42 	16
73.44 	17
73.46 	22
73.48 	11
73.5 	13
73.52 	16
73.54 	19
73.56 	22
73.58 	25
73.6 	18
73.62 	13
73.64 	20
73.66 	22
73.68 	13
73.7 	22
73.72 	20
73.74 	16
73.76 	19
73.78 	20
73.8 	14
73.82 	16
73.84 	26
73.86 	14
73.88 	24
73.9 	14
73.92 	18
73.94 	23
73.96 	5
73.98 	21
74 	20
74.02 	25
74.04 	8
74.06 	17
74.08 	13
74.1 	19
74.12 	20
74.14 	13
74.16 	17
74.18 	18
74.2 	22
74.22 	20
74.24 	20
74.26 	25
74.28 	23
74.3 	16
74.32 	10
74.34 	18
74.36 	20
74.38 	12
74.4 	21
74.42 	17
74.44 	15
74.46 	20
74.48 	23
74.5 	19
74.52 	22
74.54 	16
74.56 	16
74.58 	16
74.6 	26
74.62 	19
74.64 	23
74.66 	19
74.68 	26
74.7 	20
74.72 	15
74.74 	17
74.76 	17
74.78 	22
74.8 	30
74.82 	17
74.84 	17
74.86 	25
74.88 	13
74.9 	22
74.92 	22
74.94 	23
74.96 	18
74.98 	18
75 	25
75.02 	20
75.04 	22
75.06 	34
75.08 	26
75.1 	20
75.12 	26
75.14 	20
75.16 	15
75.18 	22
75.2 	20
75.22 	21
75.24 	21
75.26 	26
75.28 	20
75.3 	22
75.32 	17
75.34 	21
75.36 	18
75.38 	9
75.4 	17
75.42 	15
75.44 	22
75.46 	30
75.48 	17
75.5 	17
75.52 	18
75.54 	25
75.56 	10
75.58 	18
75.6 	13
75.62 	17
75.64 	25
75.66 	19
75.68 	23
75.7 	28
75.72 	24
75.74 	17
75.76 	15
75.78 	18
75.8 	18
75.82 	14
75.84 	27
75.86 	18
75.88 	23
75.9 	24
75.92 	21
75.94 	20
75.96 	24
75.98 	20
76 	20
76.02 	19
76.04 	28
76.06 	32
76.08 	20
76.1 	22
76.12 	28
76.14 	28
76.16 	27
76.18 	20
76.2 	34
76.22 	20
76.24 	29
76.26 	34
76.28 	28
76.3 	20
76.32 	33
76.34 	37
76.36 	23
76.38 	19
76.4 	27
76.42 	31
76.44 	32
76.46 	46
76.48 	59
76.5 	49
76.52 	31
76.54 	52
76.56 	37
76.58 	40
76.6 	43
76.62 	46
76.64 	32
76.66 	48
76.68 	43
76.7 	68
76.72 	56
76.74 	60
76.76 	65
76.78 	40
76.8 	58
76.82 	51
76.84 	52
76.86 	65
76.88 	61
76.9 	51
76.92 	62
76.93999 	76
76.96 	61
76.98 	73
77 	61
77.02 	55
77.04 	42
77.06 	72
77.08 	70
77.1 	43
77.12 	60
77.14 	45
77.16 	48
77.18 	49
77.2 	47
77.22 	64
77.24 	46
77.26 	56
77.28 	48
77.3 	42
77.32 	36
77.34 	41
77.36 	43
77.38 	39
77.4 	30
77.42 	40
77.43999 	37
77.46 	40
77.48 	29
77.5 	33
77.52 	24
77.54 	31
77.56 	38
77.58 	37
77.6 	35
77.62 	33
77.64 	35
77.66 	36
77.68 	40
77.7 	45
77.72 	48
77.74 	34
77.76 	43
77.78 	48
77.8 	54
77.82 	51
77.84 	62
77.86 	69
77.88 	53
77.9 	73
77.92 	97
77.93999 	107
77.96 	109
77.98 	132
78 	140
78.02 	159
78.04 	194
78.06 	217
78.08 	193
78.1 	235
78.12 	255
78.14 	237
78.16 	251
78.18 	206
78.2 	181
78.22 	158
78.24 	166
78.26 	165
78.28 	194
78.3 	169
78.32 	149
78.34 	159
78.36 	132
78.38 	129
78.4 	129
78.42 	105
78.43999 	84
78.46 	71
78.48 	71
78.5 	74
78.52 	48
78.54 	46
78.56 	54
78.58 	35
78.6 	40
78.62 	31
78.64 	27
78.66 	40
78.68 	24
78.7 	25
78.72 	23
78.74 	27
78.76 	21
78.78 	27
78.8 	27
78.82 	33
78.84 	29
78.86 	27
78.88 	29
78.9 	17
78.92 	20
78.93999 	26
78.96 	24
78.98 	14
79 	18
79.02 	26
79.04 	19
79.06 	24
79.08 	24
79.1 	13
79.12 	28
79.14 	24
79.16 	13
79.18 	20
79.2 	25
79.22 	28
79.24 	24
79.26 	18
79.28 	15
79.3 	15
79.32 	18
79.34 	18
79.36 	20
79.38 	35
79.4 	17
79.42 	18
79.43999 	18
79.46 	13
79.48 	20
79.5 	24
79.52 	12
79.54 	19
79.56 	27
79.58 	19
79.6 	17
79.62 	22
79.64 	19
79.66 	29
79.68 	22
79.7 	15
79.72 	22
79.74 	22
79.76 	31
79.78 	20
79.8 	17
79.82 	15
79.84 	17
79.86 	27
79.88 	20
79.9 	19
79.92 	19
79.93999 	17
79.96 	12
79.98 	23
80 	19
80.02 	13
80.04 	21
80.06 	24
80.08 	22
80.1 	23
80.12 	14
80.14 	20
80.16 	19
80.18 	20
80.2 	16
80.22 	16
80.24 	12
80.26 	26
80.28 	21
80.3 	19
80.32 	14
80.34 	15
80.36 	15
80.38 	18
80.4 	15
80.42 	23
80.43999 	20
80.46 	16
80.48 	20
80.5 	10
80.52 	19
80.54 	15
80.56 	14
80.58 	17
80.6 	17
80.62 	20
80.64 	21
80.66 	15
80.68 	18
80.7 	19
80.72 	17
80.74 	14
80.76 	12
80.78 	8
80.8 	17
80.82 	16
80.84 	18
80.86 	15
80.88 	16
80.9 	24
80.92 	19
80.93999 	18
80.96 	25
80.98 	20
81 	16
81.02 	20
81.04 	14
81.06 	17
81.08 	20
81.1 	14
81.12 	18
81.14 	13
81.16 	12
81.18 	14
81.2 	18
81.22 	20
81.24 	16
81.26 	21
81.28 	18
81.3 	15
81.32 	20
81.34 	15
81.36 	18
81.38 	15
81.4 	9
81.42 	25
81.43999 	14
81.46 	20
81.48 	13
81.5 	23
81.52 	13
81.54 	14
81.56 	31
81.58 	19
81.6 	25
81.62 	16
81.64 	15
81.66 	17
81.68 	25
81.7 	22
81.72 	13
81.74 	15
81.76 	21
81.78 	23
81.8 	18
81.82 	17
81.84 	24
81.86 	23
81.88 	16
81.9 	25
81.92 	21
81.93999 	16
81.96 	24
81.98 	24
82 	20
82.02 	31
82.04 	23
82.06 	27
82.08 	33
82.1 	24
82.12 	37
82.14 	33
82.16 	46
82.18 	44
82.2 	44
82.22 	58
82.24 	47
82.26 	68
82.28 	69
82.3 	66
82.32 	61
82.34 	58
82.36 	72
82.38 	53
82.4 	71
82.42 	54
82.43999 	49
82.46 	55
82.48 	43
82.5 	36
82.52 	38
82.54 	47
82.56 	69
82.58 	43
82.6 	45
82.62 	64
82.64 	48
82.66 	54
82.68 	38
82.7 	42
82.72 	36
82.74 	47
82.76 	27
82.78 	31
82.8 	31
82.82 	37
82.84 	24
82.86 	35
82.88 	30
82.9 	31
82.92 	27
82.93999 	21
82.96 	33
82.98 	27
83 	27
83.02 	18
83.04 	20
83.06 	19
83.08 	17
83.1 	21
83.12 	25
83.14 	17
83.16 	20
83.18 	24
83.2 	20
83.22 	15
83.24 	23
83.26 	17
83.28 	18
83.3 	12
83.32 	27
83.34 	17
83.36 	25
83.38 	14
83.4 	18
83.42 	17
83.43999 	16
83.46 	18
83.48 	14
83.5 	20
83.52 	19
83.54 	15
83.56 	20
83.58 	15
83.6 	13
83.62 	20
83.64 	14
83.66 	15
83.68 	19
83.7 	17
83.72 	26
83.74 	20
83.76 	14
83.78 	16
83.8 	21
83.82 	15
83.84 	22
83.86 	16
83.88 	14
83.9 	17
83.92 	19
83.93999 	14
83.96 	21
83.98 	15
84 	21
84.02 	13
84.04 	21
84.06 	16
84.08 	26
84.1 	14
84.12 	16
84.14 	24
84.16 	19
84.18 	18
84.2 	21
84.22 	19
84.24 	14
84.26 	17
84.28 	18
84.3 	19
84.32 	26
84.34 	19
84.36 	20
84.38 	17
84.4 	19
84.42 	13
84.43999 	22
84.46 	18
84.48 	16
84.5 	25
84.52 	20
84.54 	15
84.56 	10
84.58 	20
84.6 	14
84.62 	15
84.64 	23
84.66 	13
84.68 	13
84.7 	18
84.72 	13
84.74 	18
84.76 	15
84.78 	15
84.8 	15
84.82 	24
84.84 	21
84.86 	21
84.88 	16
84.9 	13
84.92 	15
84.93999 	17
84.96 	14
84.98 	16
85 	15
85.02 	18
85.04 	13
85.06 	13
85.08 	8
85.1 	10
85.12 	15
85.14 	14
85.16 	14
85.18 	18
85.2 	20
85.22 	14
85.24 	11
85.26 	14
85.28 	20
85.3 	18
85.32 	17
85.34 	22
85.36 	19
85.38 	18
85.4 	19
85.42 	13
85.43999 	18
85.46 	12
85.48 	12
85.5 	16
85.52 	17
85.54 	20
85.56 	16
85.58 	23
85.6 	13
85.62 	20
85.64 	17
85.66 	20
85.68 	19
85.7 	17
85.72 	19
85.74 	22
85.76 	14
85.78 	23
85.8 	20
85.82 	17
85.84 	13
85.86 	17
85.88 	10
85.9 	15
85.92 	19
85.93999 	13
85.96 	16
85.98 	18
86 	12
86.02 	16
86.04 	15
86.06 	16
86.08 	22
86.1 	20
86.12 	15
86.14 	19
86.16 	21
86.18 	16
86.2 	17
86.22 	11
86.24 	15
86.26 	18
86.28 	15
86.3 	19
86.32 	17
86.34 	20
86.36 	19
86.38 	12
86.4 	19
86.42 	18
86.43999 	18
86.46 	16
86.48 	11
86.5 	14
86.52 	23
86.54 	14
86.56 	21
86.58 	19
86.6 	23
86.62 	19
86.64 	17
86.66 	13
86.68 	14
86.7 	18
86.72 	22
86.74 	22
86.76 	17
86.78 	16
86.8 	13
86.82 	19
86.84 	15
86.86 	18
86.88 	19
86.9 	20
86.92 	13
86.93999 	19
86.96 	18
86.98 	18
87 	23
87.02 	20
87.04 	21
87.06 	20
87.08 	20
87.1 	16
87.12 	8
87.14 	16
87.16 	19
87.18 	19
87.2 	18
87.22 	14
87.24 	22
87.26 	12
87.28 	19
87.3 	15
87.32 	17
87.34 	22
87.36 	24
87.38 	18
87.4 	21
87.42 	18
87.43999 	13
87.46 	22
87.48 	18
87.5 	20
87.52 	20
87.54 	10
87.56 	22
87.58 	22
87.6 	26
87.62 	16
87.64 	16
87.66 	16
87.68 	16
87.7 	17
87.72 	15
87.74 	19
87.76 	20
87.78 	17
87.8 	17
87.82 	20
87.84 	23
87.86 	19
87.88 	19
87.9 	19
87.92 	23
87.93999 	16
87.96 	14
87.98 	17
88 	15
88.02 	18
88.04 	22
88.06 	8
88.08 	26
88.1 	11
88.12 	18
88.14 	10
88.16 	15
88.18 	14
88.2 	16
88.22 	16
88.24 	12
88.26 	18
88.28 	20
88.3 	14
88.32 	19
88.34 	15
88.36 	16
88.38 	11
88.4 	26
88.42 	17
88.43999 	14
88.46 	14
88.48 	16
88.5 	20
88.52 	12
88.54 	9
88.56 	11
88.58 	17
88.6 	23
88.62 	21
88.64 	15
88.66 	20
88.68 	10
88.7 	22
88.72 	11
88.74 	15
88.76 	20
88.78 	24
88.8 	14
88.82 	22
88.84 	11
88.86 	14
88.88 	15
88.9 	19
88.92 	19
88.93999 	17
88.96 	15
88.98 	13
89 	16
89.02 	21
89.04 	24
89.06 	13
89.08 	11
89.1 	10
89.12 	13
89.14 	19
89.16 	11
89.18 	15
89.2 	13
89.22 	19
89.24 	12
89.26 	14
89.28 	11
89.3 	18
89.32 	19
89.34 	16
89.36 	17
89.38 	22
89.4 	20
89.42 	18
89.43999 	12
89.46 	20
89.48 	11
89.5 	14
89.52 	14
89.54 	13
89.56 	17
89.58 	15
89.6 	13
89.62 	9
89.64 	13
89.66 	18
89.68 	15
89.7 	16
89.72 	19
89.74 	8
89.76 	16
89.78 	23
89.8 	19
89.82 	11
89.84 	18
89.86 	17
89.88 	10
89.9 	17
89.92 	13
89.93999 	21
89.96 	14
89.98 	10
90 	13
