15 	51
15.02 	49
15.04 	45
15.06 	51
15.08 	41
15.1 	54
15.12 	39
15.14 	55
15.16 	57
15.18 	59
15.2 	46
15.22 	67
15.24 	47
15.26 	46
15.28 	45
15.3 	43
15.32 	67
15.34 	63
15.36 	38
15.38 	54
15.4 	52
15.42 	57
15.44 	53
15.46 	55
15.48 	54
15.5 	49
15.52 	58
15.54 	52
15.56 	49
15.58 	62
15.6 	53
15.62 	48
15.64 	68
15.66 	58
15.68 	62
15.7 	53
15.72 	53
15.74 	71
15.76 	51
15.78 	56
15.8 	69
15.82 	48
15.84 	49
15.86 	51
15.88 	54
15.9 	54
15.92 	58
15.94 	51
15.96 	48
15.98 	61
16 	66
16.02 	48
16.04 	52
16.06 	57
16.08 	53
16.1 	53
16.12 	51
16.14 	55
16.16 	72
16.18 	59
16.2 	57
16.22 	57
16.24 	42
16.26 	52
16.28 	64
16.3 	55
16.32 	65
16.34 	66
16.36 	56
16.38 	62
16.4 	60
16.42 	46
16.44 	38
16.46 	54
16.48 	55
16.5 	59
16.52 	35
16.54 	48
16.56 	50
16.58 	57
16.6 	50
16.62 	51
16.64 	47
16.66 	53
16.68 	45
16.7 	46
16.72 	43
16.74 	46
16.76 	54
16.78 	47
16.8 	57
16.82 	50
16.84 	66
16.86 	42
16.88 	35
16.9 	55
16.92 	44
16.94 	55
16.96 	62
16.98 	54
17 	47
17.02 	38
17.04 	37
17.06 	43
17.08 	41
17.1 	40
17.12 	47
17.14 	44
17.16 	46
17.18 	47
17.2 	47
17.22 	47
17.24 	36
17.26 	38
17.28 	37
17.3 	43
17.32 	35
17.34 	52
17.36 	38
17.38 	36
17.4 	35
17.42 	32
17.44 	39
17.46 	40
17.48 	34
17.5 	29
17.52 	36
17.54 	29
17.56 	35
17.58 	36
17.6 	28
17.62 	38
17.64 	32
17.66 	32
17.68 	37
17.7 	37
17.72 	26
17.74 	36
17.76 	32
17.78 	35
17.8 	28
17.82 	26
17.84 	46
17.86 	32
17.88 	25
17.9 	34
17.92 	26
17.94 	33
17.96 	32
17.98 	29
18 	27
18.02 	33
18.04 	36
18.06 	26
18.08 	35
18.1 	22
18.12 	26
18.14 	26
18.16 	36
18.18 	27
18.2 	30
18.22 	40
18.24 	26
18.26 	22
18.28 	35
18.3 	28
18.32 	30
18.34 	34
18.36 	35
18.38 	32
18.4 	28
18.42 	32
18.44 	26
18.46 	31
18.48 	28
18.5 	35
18.52 	32
18.54 	33
18.56 	28
18.58 	24
18.6 	27
18.62 	27
18.64 	33
18.66 	33
18.68 	29
18.7 	28
18.72 	26
18.74 	42
18.76 	28
18.78 	21
18.8 	32
18.82 	40
18.84 	33
18.86 	24
18.88 	27
18.9 	29
18.92 	27
18.94 	21
18.96 	31
18.98 	28
19 	33
19.02 	26
19.04 	26
19.06 	32
19.08 	33
19.1 	33
19.12 	33
19.14 	27
19.16 	19
19.18 	29
19.2 	24
19.22 	30
19.24 	33
19.26 	31
19.28 	24
19.3 	27
19.32 	23
19.34 	27
19.36 	31
19.38 	30
19.4 	35
19.42 	22
19.44 	31
19.46 	25
19.48 	36
19.5 	29
19.52 	23
19.54 	25
19.56 	31
19.58 	27
19.6 	26
19.62 	37
19.64 	27
19.66 	35
19.68 	24
19.7 	32
19.72 	33
19.74 	24
19.76 	28
19.78 	36
19.8 	30
19.82 	39
19.84 	31
19.86 	30
19.88 	31
19.9 	29
19.92 	33
19.94 	26
19.96 	19
19.98 	35
20 	39
20.02 	32
20.04 	30
20.06 	31
20.08 	20
20.1 	26
20.12 	33
20.14 	29
20.16 	43
20.18 	33
20.2 	38
20.22 	32
20.24 	29
20.26 	29
20.28 	39
20.3 	29
20.32 	26
20.34 	32
20.36 	43
20.38 	39
20.4 	31
20.42 	36
20.44 	44
20.46 	37
20.48 	26
20.5 	30
20.52 	36
20.54 	29
20.56 	24
20.58 	38
20.6 	32
20.62 	28
20.64 	38
20.66 	37
20.68 	21
20.7 	35
20.72 	32
20.74 	34
20.76 	32
20.78 	34
20.8 	45
20.82 	35
20.84 	27
20.86 	40
20.88 	24
20.9 	27
20.92 	30
20.94 	24
20.96 	42
20.98 	49
21 	34
21.02 	36
21.04 	27
21.06 	44
21.08 	33
21.1 	38
21.12 	29
21.14 	29
21.16 	30
21.18 	34
21.2 	31
21.22 	30
21.24 	31
21.26 	41
21.28 	43
21.3 	37
21.32 	32
21.34 	33
21.36 	29
21.38 	23
21.4 	31
21.42 	29
21.44 	32
21.46 	30
21.48 	28
21.5 	34
21.52 	32
21.54 	31
21.56 	32
21.58 	36
21.6 	29
21.62 	30
21.64 	39
21.66 	33
21.68 	35
21.7 	30
21.72 	37
21.74 	28
21.76 	34
21.78 	37
21.8 	38
21.82 	40
21.84 	22
21.86 	45
21.88 	35
21.9 	37
21.92 	35
21.94 	40
21.96 	36
21.98 	33
22 	38
22.02 	42
22.04 	41
22.06 	27
22.08 	35
22.1 	37
22.12 	35
22.14 	33
22.16 	31
22.18 	44
22.2 	35
22.22 	18
22.24 	27
22.26 	34
22.28 	32
22.3 	28
22.32 	30
22.34 	34
22.36 	44
22.38 	29
22.4 	35
22.42 	31
22.44 	38
22.46 	32
22.48 	44
22.5 	28
22.52 	41
22.54 	33
22.56 	33
22.58 	30
22.6 	30
22.62 	34
22.64 	31
22.66 	23
22.68 	33
22.7 	42
22.72 	21
22.74 	20
22.76 	30
22.78 	33
22.8 	29
22.82 	25
22.84 	45
22.86 	43
22.88 	24
22.9 	31
22.92 	36
22.94 	40
22.96 	22
22.98 	34
23 	33
23.02 	25
23.04 	26
23.06 	35
23.08 	34
23.1 	28
23.12 	24
23.14 	28
23.16 	31
23.18 	29
23.2 	42
23.22 	27
23.24 	35
23.26 	31
23.28 	22
23.3 	24
23.32 	25
23.34 	25
23.36 	26
23.38 	21
23.4 	32
23.42 	40
23.44 	23
23.46 	28
23.48 	26
23.5 	13
23.52 	21
23.54 	28
23.56 	33
23.58 	42
23.6 	27
23.62 	30
23.64 	27
23.66 	33
23.68 	25
23.7 	26
23.72 	20
23.74 	25
23.76 	22
23.78 	27
23.8 	29
23.82 	26
23.84 	27
23.86 	30
23.88 	27
23.9 	28
23.92 	28
23.94 	26
23.96 	30
23.98 	27
24 	24
24.02 	25
24.04 	27
24.06 	29
24.08 	34
24.1 	33
24.12 	31
24.14 	25
24.16 	39
24.18 	32
24.2 	31
24.22 	27
24.24 	27
24.26 	30
24.28 	29
24.3 	20
24.32 	29
24.34 	33
24.36 	30
24.38 	21
24.4 	23
24.42 	23
24.44 	20
24.46 	31
24.48 	26
24.5 	32
24.52 	31
24.54 	24
24.56 	24
24.58 	21
24.6 	18
24.62 	31
24.64 	17
24.66 	20
24.68 	29
24.7 	32
24.72 	24
24.74 	24
24.76 	20
24.78 	43
24.8 	24
24.82 	21
24.84 	25
24.86 	22
24.88 	24
24.9 	31
24.92 	23
24.94 	30
24.96 	23
24.98 	24
25 	20
25.02 	34
25.04 	27
25.06 	28
25.08 	30
25.1 	28
25.12 	33
25.14 	29
25.16 	22
25.18 	33
25.2 	24
25.22 	24
25.24 	34
25.26 	22
25.28 	18
25.3 	14
25.32 	27
25.34 	31
25.36 	27
25.38 	27
25.4 	21
25.42 	28
25.44 	18
25.46 	26
25.48 	27
25.5 	32
25.52 	25
25.54 	31
25.56 	26
25.58 	26
25.6 	22
25.62 	22
25.64 	16
25.66 	34
25.68 	27
25.7 	31
25.72 	20
25.74 	31
25.76 	25
25.78 	27
25.8 	28
25.82 	25
25.84 	24
25.86 	27
25.88 	23
25.9 	27
25.92 	28
25.94 	28
25.96 	22
25.98 	22
26 	24
26.02 	25
26.04 	28
26.06 	22
26.08 	26
26.1 	19
26.12 	25
26.14 	29
26.16 	18
26.18 	21
26.2 	27
26.22 	17
26.24 	22
26.26 	20
26.28 	28
26.3 	26
26.32 	26
26.34 	32
26.36 	21
26.38 	33
26.4 	28
26.42 	26
26.44 	26
26.46 	22
26.48 	18
26.5 	16
26.52 	34
26.54 	28
26.56 	26
26.58 	29
26.6 	21
26.62 	20
26.64 	34
26.66 	22
26.68 	28
26.7 	30
26.72 	26
26.74 	26
26.76 	25
26.78 	24
26.8 	34
26.82 	28
26.84 	30
26.86 	23
26.88 	18
26.9 	21
26.92 	32
26.94 	27
26.96 	21
26.98 	23
27 	21
27.02 	18
27.04 	34
27.06 	25
27.08 	27
27.1 	26
27.12 	26
27.14 	16
27.16 	25
27.18 	21
27.2 	27
27.22 	24
27.24 	21
27.26 	19
27.28 	23
27.3 	33
27.32 	21
27.34 	28
27.36 	26
27.38 	22
27.4 	22
27.42 	26
27.44 	20
27.46 	16
27.48 	15
27.5 	13
27.52 	24
27.54 	17
27.56 	18
27.58 	27
27.6 	25
27.62 	18
27.64 	17
27.66 	22
27.68 	27
27.7 	23
27.72 	25
27.74 	19
27.76 	19
27.78 	28
27.8 	18
27.82 	23
27.84 	24
27.86 	16
27.88 	24
27.9 	35
27.92 	16
27.94 	25
27.96 	24
27.98 	23
28 	24
28.02 	21
28.04 	23
28.06 	26
28.08 	24
28.1 	20
28.12 	24
28.14 	21
28.16 	24
28.18 	21
28.2 	23
28.22 	22
28.24 	24
28.26 	19
28.28 	27
28.3 	14
28.32 	31
28.34 	19
28.36 	23
28.38 	21
28.4 	29
28.42 	16
28.44 	23
28.46 	16
28.48 	27
28.5 	23
28.52 	21
28.54 	28
28.56 	24
28.58 	21
28.6 	26
28.62 	17
28.64 	20
28.66 	23
28.68 	29
28.7 	24
28.72 	22
28.74 	20
28.76 	23
28.78 	20
28.8 	21
28.82 	22
28.84 	24
28.86 	22
28.88 	35
28.9 	26
28.92 	30
28.94 	17
28.96 	21
28.98 	27
29 	23
29.02 	24
29.04 	26
29.06 	23
29.08 	21
29.1 	16
29.12 	22
29.14 	16
29.16 	17
29.18 	19
29.2 	16
29.22 	22
29.24 	21
29.26 	30
29.28 	20
29.3 	23
29.32 	31
29.34 	21
29.36 	21
29.38 	21
29.4 	22
29.42 	26
29.44 	19
29.46 	20
29.48 	20
29.5 	25
29.52 	22
29.54 	19
29.56 	23
29.58 	22
29.6 	27
29.62 	14
29.64 	25
29.66 	18
29.68 	29
29.7 	29
29.72 	25
29.74 	22
29.76 	24
29.78 	20
29.8 	23
29.82 	23
29.84 	37
29.86 	14
29.88 	22
29.9 	27
29.92 	10
29.94 	21
29.96 	28
29.98 	24
30 	24
30.02 	16
30.04 	19
30.06 	32
30.08 	22
30.1 	25
30.12 	24
30.14 	26
30.16 	25
30.18 	27
30.2 	22
30.22 	22
30.24 	18
30.26 	24
30.28 	18
30.3 	27
30.32 	20
30.34 	27
30.36 	11
30.38 	27
30.4 	22
30.42 	18
30.44 	20
30.46 	19
30.48 	20
30.5 	15
30.52 	23
30.54 	23
30.56 	14
30.58 	29
30.6 	24
30.62 	25
30.64 	17
30.66 	21
30.68 	20
30.7 	14
30.72 	28
30.74 	20
30.76 	27
30.78 	21
30.8 	18
30.82 	17
30.84 	22
30.86 	18
30.88 	16
30.9 	24
30.92 	22
30.94 	23
30.96 	28
30.98 	25
31 	24
31.02 	23
31.04 	19
31.06 	14
31.08 	27
31.1 	18
31.12 	18
31.14 	17
31.16 	20
31.18 	19
31.2 	28
31.22 	16
31.24 	31
31.26 	20
31.28 	24
31.3 	19
31.32 	18
31.34 	26
31.36 	26
31.38 	15
31.4 	23
31.42 	15
31.44 	21
31.46 	24
31.48 	16
31.5 	15
31.52 	19
31.54 	20
31.56 	27
31.58 	13
31.6 	15
31.62 	24
31.64 	19
31.66 	20
31.68 	16
31.7 	16
31.72 	26
31.74 	21
31.76 	18
31.78 	25
31.8 	25
31.82 	15
31.84 	13
31.86 	21
31.88 	22
31.9 	35
31.92 	23
31.94 	16
31.96 	15
31.98 	17
32 	20
32.02 	17
32.04 	18
32.06 	17
32.08 	17
32.1 	18
32.12 	25
32.14 	23
32.16 	20
32.18 	25
32.2 	23
32.22 	10
32.24 	13
32.26 	20
32.28 	16
32.3 	19
32.32 	26
32.34 	18
32.36 	14
32.38 	21
32.4 	23
32.42 	16
32.44 	13
32.46 	13
32.48 	15
32.5 	21
32.52 	24
32.54 	12
32.56 	24
32.58 	17
32.6 	19
32.62 	27
32.64 	14
32.66 	20
32.68 	18
32.7 	21
32.72 	18
32.74 	19
32.76 	23
32.78 	24
32.8 	21
32.82 	17
32.84 	19
32.86 	20
32.88 	16
32.9 	15
32.92 	14
32.94 	17
32.96 	31
32.98 	20
33 	20
33.02 	20
33.04 	25
33.06 	18
33.08 	17
33.1 	19
33.12 	30
33.14 	24
33.16 	12
33.18 	20
33.2 	19
33.22 	19
33.24 	27
33.26 	18
33.28 	23
33.3 	30
33.32 	24
33.34 	20
33.36 	29
33.38 	22
33.4 	24
33.42 	17
33.44 	19
33.46 	16
33.48 	24
33.5 	18
33.52 	13
33.54 	13
33.56 	11
33.58 	23
33.6 	25
33.62 	19
33.64 	19
33.66 	22
33.68 	23
33.7 	22
33.72 	8
33.74 	18
33.76 	23
33.78 	30
33.8 	20
33.82 	29
33.84 	17
33.86 	24
33.88 	18
33.9 	21
33.92 	24
33.94 	18
33.96 	24
33.98 	20
34 	17
34.02 	19
34.04 	26
34.06 	15
34.08 	15
34.1 	15
34.12 	13
34.14 	23
34.16 	14
34.18 	21
34.2 	19
34.22 	19
34.24 	24
34.26 	19
34.28 	25
34.3 	25
34.32 	18
34.34 	17
34.36 	19
34.38 	17
34.4 	22
34.42 	32
34.44 	25
34.46 	27
34.48 	25
34.5 	20
34.52 	13
34.54 	25
34.56 	23
34.58 	29
34.6 	28
34.62 	37
34.64 	19
34.66 	20
34.68 	22
34.7 	31
34.72 	27
34.74 	18
34.76 	29
34.78 	29
34.8 	27
34.82 	33
34.84 	18
34.86 	23
34.88 	25
34.9 	34
34.92 	27
34.94 	29
34.96 	37
34.98 	25
35 	30
35.02 	24
35.04 	28
35.06 	26
35.08 	18
35.1 	29
35.12 	32
35.14 	34
35.16 	37
35.18 	33
35.2 	40
35.22 	35
35.24 	44
35.26 	49
35.28 	56
35.3 	55
35.32 	61
35.34 	59
35.36 	56
35.38 	53
35.4 	61
35.42 	68
35.44 	68
35.46 	64
35.48 	61
35.5 	71
35.52 	57
35.54 	43
35.56 	41
35.58 	35
35.6 	54
35.62 	43
35.64 	26
35.66 	28
35.68 	31
35.7 	30
35.72 	25
35.74 	22
35.76 	28
35.78 	23
35.8 	35
35.82 	24
35.84 	19
35.86 	26
35.88 	20
35.9 	27
35.92 	19
35.94 	34
35.96 	21
35.98 	21
36 	23
36.02 	15
36.04 	26
36.06 	11
36.08 	26
36.1 	19
36.12 	25
36.14 	27
36.16 	27
36.18 	21
36.2 	23
36.22 	27
36.24 	22
36.26 	20
36.28 	17
36.3 	24
36.32 	20
36.34 	24
36.36 	27
36.38 	21
36.4 	18
36.42 	22
36.44 	20
36.46 	18
36.48 	18
36.5 	17
36.52 	23
36.54 	22
36.56 	19
36.58 	16
36.6 	20
36.62 	24
36.64 	28
36.66 	18
36.68 	24
36.7 	27
36.72 	24
36.74 	21
36.76 	15
36.78 	17
36.8 	27
36.82 	24
36.84 	24
36.86 	18
36.88 	18
36.9 	19
36.92 	25
36.94 	21
36.96 	22
36.98 	22
37 	19
37.02 	21
37.04 	20
37.06 	24
37.08 	27
37.1 	27
37.12 	23
37.14 	23
37.16 	23
37.18 	26
37.2 	35
37.22 	29
37.24 	26
37.26 	24
37.28 	26
37.3 	28
37.32 	30
37.34 	19
37.36 	27
37.38 	27
37.4 	27
37.42 	31
37.44 	33
37.46 	31
37.48 	35
37.5 	23
37.52 	23
37.54 	32
37.56 	32
37.58 	23
37.6 	29
37.62 	27
37.64 	22
37.66 	29
37.68 	21
37.7 	30
37.72 	41
37.74 	28
37.76 	38
37.78 	35
37.8 	26
37.82 	39
37.84 	41
37.86 	44
37.88 	35
37.9 	46
37.92 	46
37.94 	38
37.96 	37
37.98 	40
38 	49
38.02 	53
38.04 	61
38.06 	57
38.08 	46
38.1 	73
38.12 	94
38.14 	113
38.16 	131
38.18 	145
38.2 	177
38.22 	256
38.24 	315
38.26 	429
38.28 	483
38.3 	699
38.32 	794
38.34 	969
38.36 	1071
38.38 	1131
38.4 	1229
38.42 	1135
38.44 	1034
38.46 	880
38.48 	785
38.5 	696
38.52 	577
38.54 	461
38.56 	332
38.58 	288
38.6 	232
38.62 	170
38.64 	153
38.66 	123
38.68 	127
38.7 	123
38.72 	91
38.74 	75
38.76 	68
38.78 	69
38.8 	54
38.82 	55
38.84 	40
38.86 	40
38.88 	32
38.9 	46
38.92 	41
38.94 	40
38.96 	41
38.98 	38
39 	40
39.02 	44
39.04 	33
39.06 	32
39.08 	45
39.1 	45
39.12 	57
39.14 	50
39.16 	45
39.18 	63
39.2 	45
39.22 	46
39.24 	56
39.26 	51
39.28 	48
39.3 	42
39.32 	44
39.34 	47
39.36 	52
39.38 	41
39.4 	60
39.42 	40
39.44 	50
39.46 	64
39.48 	34
39.5 	44
39.52 	49
39.54 	38
39.56 	39
39.58 	31
39.6 	37
39.62 	40
39.64 	33
39.66 	36
39.68 	38
39.7 	37
39.72 	38
39.74 	35
39.76 	32
39.78 	32
39.8 	33
39.82 	42
39.84 	37
39.86 	32
39.88 	40
39.9 	39
39.92 	51
39.94 	44
39.96 	55
39.98 	80
40 	59
40.02 	35
40.04 	61
40.06 	82
40.08 	76
40.1 	72
40.12 	70
40.14 	102
40.16 	99
40.18 	91
40.2 	104
40.22 	106
40.24 	105
40.26 	109
40.28 	119
40.3 	138
40.32 	150
40.34 	169
40.36 	166
40.38 	169
40.4 	189
40.42 	220
40.44 	181
40.46 	221
40.48 	183
40.5 	190
40.52 	202
40.54 	181
40.56 	195
40.58 	165
40.6 	163
40.62 	174
40.64 	138
40.66 	121
40.68 	98
40.7 	91
40.72 	85
40.74 	71
40.76 	65
40.78 	64
40.8 	69
40.82 	44
40.84 	52
40.86 	44
40.88 	43
40.9 	38
40.92 	41
40.94 	48
40.96 	28
40.98 	51
41 	31
41.02 	24
41.04 	39
41.06 	31
41.08 	33
41.1 	21
41.12 	26
41.14 	30
41.16 	33
41.18 	30
41.2 	31
41.22 	20
41.24 	33
41.26 	24
41.28 	33
41.3 	29
41.32 	18
41.34 	30
41.36 	22
41.38 	22
41.4 	24
41.42 	17
41.44 	17
41.46 	29
41.48 	23
41.5 	28
41.52 	20
41.54 	21
41.56 	18
41.58 	26
41.6 	24
41.62 	19
41.64 	28
41.66 	25
41.68 	23
41.7 	18
41.72 	22
41.74 	23
41.76 	30
41.78 	13
41.8 	27
41.82 	22
41.84 	23
41.86 	27
41.88 	18
41.9 	26
41.92 	21
41.94 	17
41.96 	18
41.98 	27
42 	15
42.02 	27
42.04 	24
42.06 	21
42.08 	24
42.1 	34
42.12 	18
42.14 	22
42.16 	20
42.18 	18
42.2 	26
42.22 	11
42.24 	20
42.26 	27
42.28 	18
42.3 	25
42.32 	14
42.34 	21
42.36 	16
42.38 	20
42.4 	27
42.42 	22
42.44 	13
42.46 	12
42.48 	19
42.5 	23
42.52 	24
42.54 	22
42.56 	19
42.58 	24
42.6 	15
42.62 	21
42.64 	19
42.66 	22
42.68 	13
42.7 	22
42.72 	25
42.74 	25
42.76 	24
42.78 	25
42.8 	25
42.82 	23
42.84 	16
42.86 	17
42.88 	22
42.9 	22
42.92 	18
42.94 	22
42.96 	15
42.98 	27
43 	32
43.02 	15
43.04 	21
43.06 	21
43.08 	14
43.1 	17
43.12 	20
43.14 	23
43.16 	18
43.18 	27
43.2 	26
43.22 	22
43.24 	31
43.26 	22
43.28 	22
43.3 	19
43.32 	24
43.34 	23
43.36 	26
43.38 	18
43.4 	16
43.42 	18
43.44 	18
43.46 	23
43.48 	19
43.5 	23
43.52 	25
43.54 	17
43.56 	25
43.58 	17
43.6 	20
43.62 	19
43.64 	21
43.66 	21
43.68 	26
43.7 	21
43.72 	20
43.74 	16
43.76 	25
43.78 	21
43.8 	19
43.82 	26
43.84 	20
43.86 	21
43.88 	23
43.9 	20
43.92 	29
43.94 	25
43.96 	20
43.98 	20
44 	16
44.02 	26
44.04 	34
44.06 	31
44.08 	19
44.1 	23
44.12 	34
44.14 	27
44.16 	24
44.18 	36
44.2 	25
44.22 	28
44.24 	35
44.26 	46
44.28 	38
44.3 	62
44.32 	42
44.34 	63
44.36 	71
44.38 	76
44.4 	64
44.42 	137
44.44 	104
44.46 	195
44.48 	238
44.5 	305
44.52 	464
44.54 	453
44.56 	509
44.58 	520
44.6 	480
44.62 	559
44.64 	516
44.66 	462
44.68 	437
44.7 	370
44.72 	311
44.74 	282
44.76 	240
44.78 	177
44.8 	139
44.82 	100
44.84 	91
44.86 	50
44.88 	45
44.9 	34
44.92 	42
44.94 	32
44.96 	33
44.98 	34
45 	19
45.02 	30
45.04 	25
45.06 	29
45.08 	32
45.1 	33
45.12 	26
45.14 	11
45.16 	16
45.18 	24
45.2 	25
45.22 	28
45.24 	26
45.26 	32
45.28 	21
45.3 	17
45.32 	19
45.34 	24
45.36 	23
45.38 	15
45.4 	17
45.42 	14
45.44 	15
45.46 	22
45.48 	24
45.5 	16
45.52 	18
45.54 	13
45.56 	21
45.58 	21
45.6 	14
45.62 	15
45.64 	19
45.66 	16
45.68 	20
45.7 	23
45.72 	20
45.74 	21
45.76 	26
45.78 	21
45.8 	22
45.82 	17
45.84 	20
45.86 	15
45.88 	16
45.9 	18
45.92 	19
45.94 	15
45.96 	20
45.98 	23
46 	16
46.02 	19
46.04 	24
46.06 	12
46.08 	20
46.1 	22
46.12 	14
46.14 	15
46.16 	18
46.18 	19
46.2 	22
46.22 	17
46.24 	23
46.26 	26
46.28 	18
46.3 	12
46.32 	19
46.34 	18
46.36 	10
46.38 	16
46.4 	14
46.42 	14
46.44 	18
46.46 	7
46.48 	20
46.5 	15
46.52 	16
46.54 	17
46.56 	16
46.58 	23
46.6 	16
46.62 	21
46.64 	15
46.66 	18
46.68 	17
46.7 	13
46.72 	20
46.74 	23
46.76 	20
46.78 	10
46.8 	18
46.82 	17
46.84 	17
46.86 	20
46.88 	24
46.9 	14
46.92 	15
46.94 	20
46.96 	24
46.98 	16
47 	16
47.02 	22
47.04 	27
47.06 	15
47.08 	22
47.1 	22
47.12 	20
47.14 	9
47.16 	24
47.18 	22
47.2 	18
47.22 	17
47.24 	22
47.26 	17
47.28 	15
47.3 	22
47.32 	23
47.34 	9
47.36 	16
47.38 	9
47.4 	15
47.42 	15
47.44 	15
47.46 	10
47.48 	12
47.5 	19
47.52 	21
47.54 	12
47.56 	10
47.58 	13
47.6 	26
47.62 	14
47.64 	19
47.66 	14
47.68 	23
47.7 	21
47.72 	15
47.74 	15
47.76 	20
47.78 	14
47.8 	12
47.82 	16
47.84 	8
47.86 	12
47.88 	11
47.9 	17
47.92 	12
47.94 	18
47.96 	14
47.98 	10
48 	19
48.02 	19
48.04 	19
48.06 	18
48.08 	10
48.1 	18
48.12 	13
48.14 	12
48.16 	23
48.18 	12
48.2 	14
48.22 	17
48.24 	13
48.26 	19
48.28 	9
48.3 	15
48.32 	15
48.34 	13
48.36 	13
48.38 	14
48.4 	11
48.42 	6
48.44 	19
48.46 	8
48.48 	16
48.5 	9
48.52 	15
48.54 	16
48.56 	19
48.58 	13
48.6 	15
48.62 	10
48.64 	11
48.66 	10
48.68 	8
48.7 	15
48.72 	20
48.74 	6
48.76 	6
48.78 	18
48.8 	13
48.82 	20
48.84 	13
48.86 	13
48.88 	16
48.9 	19
48.92 	8
48.94 	16
48.96 	16
48.98 	21
49 	16
49.02 	18
49.04 	15
49.06 	12
49.08 	12
49.1 	13
49.12 	6
49.14 	16
49.16 	12
49.18 	10
49.2 	14
49.22 	17
49.24 	11
49.26 	9
49.28 	19
49.3 	15
49.32 	17
49.34 	16
49.36 	20
49.38 	19
49.4 	14
49.42 	23
49.44 	20
49.46 	18
49.48 	10
49.5 	17
49.52 	16
49.54 	13
49.56 	13
49.58 	15
49.6 	18
49.62 	12
49.64 	18
49.66 	22
49.68 	14
49.7 	19
49.72 	10
49.74 	11
49.76 	18
49.78 	7
49.8 	15
49.82 	11
49.84 	13
49.86 	16
49.88 	17
49.9 	12
49.92 	24
49.94 	11
49.96 	11
49.98 	21
50 	21
50.02 	18
50.04 	12
50.06 	6
50.08 	4
50.1 	12
50.12 	19
50.14 	16
50.16 	12
50.18 	8
50.2 	16
50.22 	20
50.24 	11
50.26 	16
50.28 	17
50.3 	13
50.32 	18
50.34 	12
50.36 	9
50.38 	12
50.4 	12
50.42 	13
50.44 	12
50.46 	15
50.48 	14
50.5 	13
50.52 	13
50.54 	14
50.56 	14
50.58 	7
50.6 	17
50.62 	23
50.64 	15
50.66 	17
50.68 	11
50.7 	9
50.72 	11
50.74 	9
50.76 	17
50.78 	10
50.8 	21
50.82 	20
50.84 	21
50.86 	16
50.88 	11
50.9 	19
50.92 	11
50.94 	13
50.96 	17
50.98 	10
51 	8
51.02 	12
51.04 	15
51.06 	19
51.08 	19
51.1 	11
51.12 	11
51.14 	13
51.16 	11
51.18 	15
51.2 	14
51.22 	11
51.24 	7
51.26 	10
51.28 	11
51.3 	16
51.32 	16
51.34 	14
51.36 	11
51.38 	20
51.4 	14
51.42 	10
51.44 	15
51.46 	10
51.48 	14
51.5 	12
51.52 	19
51.54 	10
51.56 	21
51.58 	12
51.6 	14
51.62 	11
51.64 	20
51.66 	15
51.68 	14
51.7 	5
51.72 	16
51.74 	12
51.76 	15
51.78 	11
51.8 	13
51.82 	14
51.84 	12
51.86 	14
51.88 	10
51.9 	16
51.92 	20
51.94 	9
51.96 	19
51.98 	10
52 	19
52.02 	13
52.04 	10
52.06 	12
52.08 	9
52.1 	12
52.12 	17
52.14 	17
52.16 	13
52.18 	17
52.2 	7
52.22 	11
52.24 	11
52.26 	14
52.28 	15
52.3 	14
52.32 	9
52.34 	18
52.36 	15
52.38 	12
52.4 	13
52.42 	8
52.44 	15
52.46 	14
52.48 	5
52.5 	14
52.52 	7
52.54 	18
52.56 	12
52.58 	11
52.6 	12
52.62 	17
52.64 	11
52.66 	22
52.68 	22
52.7 	13
52.72 	18
52.74 	14
52.76 	19
52.78 	12
52.8 	12
52.82 	17
52.84 	12
52.86 	17
52.88 	22
52.9 	12
52.92 	19
52.94 	15
52.96 	22
52.98 	21
53 	25
53.02 	28
53.04 	25
53.06 	28
53.08 	17
53.1 	17
53.12 	27
53.14 	23
53.16 	30
53.18 	26
53.2 	26
53.22 	31
53.24 	29
53.26 	25
53.28 	28
53.3 	33
53.32 	31
53.34 	43
53.36 	43
53.38 	30
53.4 	29
53.42 	39
53.44 	49
53.46 	30
53.48 	36
53.5 	25
53.52 	33
53.54 	28
53.56 	26
53.58 	18
53.6 	21
53.62 	19
53.64 	22
53.66 	18
53.68 	13
53.7 	26
53.72 	21
53.74 	23
53.76 	11
53.78 	15
53.8 	25
53.82 	23
53.84 	10
53.86 	13
53.88 	14
53.9 	12
53.92 	18
53.94 	17
53.96 	10
53.98 	14
54 	14
54.02 	13
54.04 	15
54.06 	15
54.08 	12
54.1 	20
54.12 	15
54.14 	16
54.16 	15
54.18 	18
54.2 	22
54.22 	10
54.24 	14
54.26 	11
54.28 	13
54.3 	17
54.32 	11
54.34 	14
54.36 	9
54.38 	8
54.4 	13
54.42 	14
54.44 	12
54.46 	13
54.48 	15
54.5 	17
54.52 	10
54.54 	14
54.56 	17
54.58 	8
54.6 	18
54.62 	8
54.64 	16
54.66 	6
54.68 	16
54.7 	12
54.72 	10
54.74 	12
54.76 	16
54.78 	11
54.8 	19
54.82 	9
54.84 	5
54.86 	13
54.88 	10
54.9 	14
54.92 	8
54.94 	13
54.96 	20
54.98 	10
55 	12
55.02 	14
55.04 	5
55.06 	17
55.08 	9
55.1 	12
55.12 	9
55.14 	12
55.16 	14
55.18 	15
55.2 	13
55.22 	12
55.24 	15
55.26 	14
55.28 	12
55.3 	12
55.32 	18
55.34 	9
55.36 	15
55.38 	7
55.4 	12
55.42 	9
55.44 	16
55.46 	12
55.48 	13
55.5 	10
55.52 	14
55.54 	13
55.56 	13
55.58 	16
55.6 	9
55.62 	12
55.64 	12
55.66 	15
55.68 	9
55.7 	13
55.72 	13
55.74 	13
55.76 	15
55.78 	13
55.8 	12
55.82 	18
55.84 	13
55.86 	11
55.88 	18
55.9 	13
55.92 	20
55.94 	16
55.96 	17
55.98 	16
56 	14
56.02 	9
56.04 	8
56.06 	16
56.08 	15
56.1 	13
56.12 	11
56.14 	16
56.16 	15
56.18 	11
56.2 	13
56.22 	15
56.24 	8
56.26 	5
56.28 	20
56.3 	10
56.32 	15
56.34 	16
56.36 	12
56.38 	15
56.4 	12
56.42 	20
56.44 	15
56.46 	14
56.48 	12
56.5 	13
56.52 	12
56.54 	19
56.56 	15
56.58 	16
56.6 	14
56.62 	20
56.64 	9
56.66 	12
56.68 	14
56.7 	10
56.72 	9
56.74 	9
56.76 	19
56.78 	11
56.8 	16
56.82 	9
56.84 	10
56.86 	20
56.88 	13
56.9 	15
56.92 	11
56.94 	9
56.96 	13
56.98 	12
57 	12
57.02 	12
57.04 	19
57.06 	12
57.08 	19
57.1 	18
57.12 	18
57.14 	11
57.16 	10
57.18 	17
57.2 	10
57.22 	8
57.24 	13
57.26 	12
57.28 	12
57.3 	8
57.32 	10
57.34 	14
57.36 	10
57.38 	9
57.4 	14
57.42 	13
57.44 	9
57.46 	10
57.48 	17
57.5 	12
57.52 	7
57.54 	6
57.56 	15
57.58 	11
57.6 	6
57.62 	10
57.64 	14
57.66 	4
57.68 	9
57.7 	12
57.72 	13
57.74 	9
57.76 	8
57.78 	14
57.8 	10
57.82 	8
57.84 	10
57.86 	11
57.88 	17
57.9 	15
57.92 	9
57.94 	15
57.96 	17
57.98 	14
58 	14
58.02 	11
58.04 	8
58.06 	11
58.08 	12
58.1 	12
58.12 	13
58.14 	12
58.16 	13
58.18 	7
58.2 	12
58.22 	7
58.24 	17
58.26 	16
58.28 	11
58.3 	8
58.32 	14
58.34 	12
58.36 	6
58.38 	12
58.4 	15
58.42 	14
58.44 	17
58.46 	10
58.48 	20
58.5 	13
58.52 	18
58.54 	15
58.56 	21
58.58 	15
58.6 	12
58.62 	6
58.64 	11
58.66 	5
58.68 	7
58.7 	13
58.72 	14
58.74 	12
58.76 	11
58.78 	13
58.8 	14
58.82 	17
58.84 	13
58.86 	10
58.88 	8
58.9 	18
58.92 	9
58.94 	12
58.96 	13
58.98 	9
59 	10
59.02 	16
59.04 	14
59.06 	15
59.08 	8
59.1 	9
59.12 	9
59.14 	9
59.16 	6
59.18 	13
59.2 	9
59.22 	12
59.24 	11
59.26 	10
59.28 	12
59.3 	12
59.32 	5
59.34 	7
59.36 	14
59.38 	7
59.4 	12
59.42 	11
59.44 	13
59.46 	15
59.48 	9
59.5 	8
59.52 	12
59.54 	16
59.56 	11
59.58 	10
59.6 	8
59.62 	12
59.64 	10
59.66 	12
59.68 	14
59.7 	11
59.72 	10
59.74 	13
59.76 	11
59.78 	10
59.8 	4
59.82 	18
59.84 	15
59.86 	13
59.88 	17
59.9 	9
59.92 	10
59.94 	19
59.96 	16
59.98 	8
60 	9
60.02 	14
60.04 	16
60.06 	12
60.08 	11
60.1 	11
60.12 	10
60.14 	12
60.16 	15
60.18 	15
60.2 	13
60.22 	10
60.24 	13
60.26 	12
60.28 	17
60.3 	15
60.32 	3
60.34 	13
60.36 	9
60.38 	13
60.4 	11
60.42 	10
60.44 	8
60.46 	14
60.48 	8
60.5 	13
60.52 	14
60.54 	10
60.56 	15
60.58 	12
60.6 	14
60.62 	11
60.64 	10
60.66 	9
60.68 	15
60.7 	9
60.72 	12
60.74 	10
60.76 	12
60.78 	8
60.8 	10
60.82 	15
60.84 	12
60.86 	12
60.88 	6
60.9 	11
60.92 	7
60.94 	15
60.96 	12
60.98 	12
61 	12
61.02 	18
61.04 	12
61.06 	11
61.08 	17
61.1 	16
61.12 	8
61.14 	7
61.16 	14
61.18 	10
61.2 	9
61.22 	11
61.24 	8
61.26 	9
61.28 	6
61.3 	12
61.32 	15
61.34 	14
61.36 	11
61.38 	13
61.4 	12
61.42 	12
61.44 	12
61.46 	14
61.48 	7
61.5 	12
61.52 	10
61.54 	15
61.56 	13
61.58 	7
61.6 	9
61.62 	10
61.64 	8
61.66 	12
61.68 	20
61.7 	12
61.72 	8
61.74 	7
61.76 	4
61.78 	16
61.8 	9
61.82 	17
61.84 	10
61.86 	15
61.88 	14
61.9 	11
61.92 	18
61.94 	15
61.96 	9
61.98 	18
62 	13
62.02 	8
62.04 	14
62.06 	6
62.08 	18
62.1 	11
62.12 	18
62.14 	14
62.16 	6
62.18 	17
62.2 	10
62.22 	8
62.24 	11
62.26 	6
62.28 	20
62.3 	17
62.32 	17
62.34 	10
62.36 	10
62.38 	11
62.4 	9
62.42 	15
62.44 	10
62.46 	13
62.48 	9
62.5 	10
62.52 	16
62.54 	11
62.56 	11
62.58 	16
62.6 	9
62.62 	15
62.64 	16
62.66 	17
62.68 	20
62.7 	15
62.72 	15
62.74 	17
62.76 	17
62.78 	15
62.8 	12
62.82 	11
62.84 	12
62.86 	14
62.88 	15
62.9 	14
62.92 	15
62.94 	15
62.96 	8
62.98 	19
63 	19
63.02 	16
63.04 	15
63.06 	20
63.08 	19
63.1 	20
63.12 	13
63.14 	21
63.16 	13
63.18 	24
63.2 	16
63.22 	24
63.24 	25
63.26 	17
63.28 	20
63.3 	32
63.32 	21
63.34 	18
63.36 	28
63.38 	26
63.4 	29
63.42 	28
63.44 	23
63.46 	29
63.48 	16
63.5 	27
63.52 	22
63.54 	38
63.56 	36
63.58 	34
63.6 	27
63.62 	32
63.64 	30
63.66 	32
63.68 	30
63.7 	32
63.72 	31
63.74 	28
63.76 	27
63.78 	24
63.8 	32
63.82 	23
63.84 	31
63.86 	35
63.88 	27
63.9 	24
63.92 	16
63.94 	17
63.96 	18
63.98 	22
64 	21
64.02 	18
64.04 	11
64.06 	21
64.08 	13
64.1 	11
64.12 	27
64.14 	14
64.16 	17
64.18 	20
64.2 	18
64.22 	15
64.24 	10
64.26 	13
64.28 	21
64.3 	19
64.32 	18
64.34 	13
64.36 	15
64.38 	12
64.4 	15
64.42 	13
64.44 	15
64.46 	25
64.48 	23
64.5 	11
64.52 	13
64.54 	11
64.56 	22
64.58 	18
64.6 	13
64.62 	23
64.64 	20
64.66 	21
64.68 	23
64.7 	19
64.72 	27
64.74 	26
64.76 	34
64.78 	37
64.8 	40
64.82 	47
64.84 	54
64.86 	77
64.88 	109
64.9 	131
64.92 	188
64.94 	153
64.96 	177
64.98 	219
65 	188
65.02 	194
65.04 	146
65.06 	132
65.08 	119
65.1 	131
65.12 	117
65.14 	121
65.16 	138
65.18 	101
65.2 	117
65.22 	86
65.24 	62
65.26 	43
65.28 	42
65.3 	42
65.32 	25
65.34 	36
65.36 	30
65.38 	17
65.4 	14
65.42 	14
65.44 	17
65.46 	16
65.48 	17
65.5 	13
65.52 	9
65.54 	13
65.56 	15
65.58 	14
65.6 	18
65.62 	17
65.64 	17
65.66 	13
65.68 	13
65.7 	14
65.72 	24
65.74 	19
65.76 	19
65.78 	8
65.8 	14
65.82 	9
65.84 	15
65.86 	8
65.88 	17
65.9 	16
65.92 	6
65.94 	8
65.96 	10
65.98 	17
66 	13
66.02 	17
66.04 	9
66.06 	13
66.08 	13
66.1 	13
66.12 	10
66.14 	17
66.16 	12
66.18 	14
66.2 	10
66.22 	14
66.24 	17
66.26 	12
66.28 	7
66.3 	15
66.32 	10
66.34 	2
66.36 	11
66.38 	11
66.4 	15
66.42 	6
66.44 	6
66.46 	13
66.48 	11
66.5 	16
66.52 	10
66.54 	9
66.56 	11
66.58 	8
66.6 	18
66.62 	13
66.64 	13
66.66 	12
66.68 	17
66.7 	11
66.72 	16
66.74 	16
66.76 	11
66.78 	12
66.8 	14
66.82 	12
66.84 	19
66.86 	17
66.88 	15
66.9 	15
66.92 	12
66.94 	8
66.96 	13
66.98 	10
67 	12
67.02 	10
67.04 	12
67.06 	9
67.08 	14
67.1 	10
67.12 	6
67.14 	9
67.16 	11
67.18 	13
67.2 	11
67.22 	15
67.24 	11
67.26 	12
67.28 	13
67.3 	14
67.32 	8
67.34 	7
67.36 	12
67.38 	18
67.4 	13
67.42 	10
67.44 	16
67.46 	9
67.48 	4
67.5 	14
67.52 	11
67.54 	11
67.56 	14
67.58 	11
67.6 	15
67.62 	14
67.64 	15
67.66 	8
67.68 	8
67.7 	14
67.72 	12
67.74 	9
67.76 	10
67.78 	21
67.8 	13
67.82 	7
67.84 	8
67.86 	12
67.88 	10
67.9 	9
67.92 	9
67.94 	14
67.96 	11
67.98 	14
68 	13
68.02 	14
68.04 	12
68.06 	14
68.08 	15
68.1 	14
68.12 	8
68.14 	11
68.16 	14
68.18 	10
68.2 	12
68.22 	15
68.24 	7
68.26 	11
68.28 	10
68.3 	8
68.32 	8
68.34 	15
68.36 	14
68.38 	7
68.4 	11
68.42 	10
68.44 	12
68.46 	12
68.48 	15
68.5 	11
68.52 	12
68.54 	9
68.56 	12
68.58 	14
68.6 	18
68.62 	11
68.64 	8
68.66 	10
68.68 	11
68.7 	13
68.72 	9
68.74 	14
68.76 	12
68.78 	10
68.8 	14
68.82 	10
68.84 	16
68.86 	15
68.88 	11
68.9 	10
68.92 	10
68.94 	9
68.96 	12
68.98 	13
69 	11
69.02 	16
69.04 	9
69.06 	15
69.08 	8
69.1 	9
69.12 	23
69.14 	14
69.16 	16
69.18 	13
69.2 	12
69.22 	17
69.24 	11
69.26 	16
69.28 	9
69.3 	16
69.32 	21
69.34 	5
69.36 	12
69.38 	18
69.4 	12
69.42 	13
69.44 	18
69.46 	14
69.48 	16
69.5 	14
69.52 	14
69.54 	13
69.56 	11
69.58 	11
69.6 	12
69.62 	19
69.64 	12
69.66 	13
69.68 	14
69.7 	12
69.72 	12
69.74 	11
69.76 	10
69.78 	11
69.8 	12
69.82 	18
69.84 	14
69.86 	9
69.88 	11
69.9 	15
69.92 	6
69.94 	11
69.96 	9
69.98 	11
70 	15
70.02 	13
70.04 	15
70.06 	11
70.08 	17
70.1 	16
70.12 	23
70.14 	12
70.16 	14
70.18 	10
70.2 	14
70.22 	10
70.24 	11
70.26 	12
70.28 	21
70.3 	10
70.32 	10
70.34 	22
70.36 	18
70.38 	29
70.4 	16
70.42 	14
70.44 	25
70.46 	14
70.48 	18
70.5 	20
70.52 	10
70.54 	22
70.56 	22
70.58 	16
70.6 	21
70.62 	25
70.64 	17
70.66 	22
70.68 	30
70.7 	24
70.72 	23
70.74 	18
70.76 	24
70.78 	28
70.8 	32
70.82 	25
70.84 	30
70.86 	20
70.88 	22
70.9 	28
70.92 	29
70.94 	31
70.96 	29
70.98 	29
71 	33
71.02 	33
71.04 	45
71.06 	49
71.08 	54
71.1 	51
71.12 	50
71.14 	43
71.16 	32
71.18 	48
71.2 	50
71.22 	37
71.24 	25
71.26 	34
71.28 	35
71.3 	32
71.32 	38
71.34 	19
71.36 	36
71.38 	32
71.4 	22
71.42 	19
71.44 	25
71.46 	15
71.48 	29
71.5 	20
71.52 	13
71.54 	13
71.56 	24
71.58 	11
71.6 	14
71.62 	12
71.64 	18
71.66 	14
71.68 	17
71.7 	14
71.72 	17
71.74 	17
71.76 	14
71.78 	19
71.8 	13
71.82 	10
71.84 	16
71.86 	19
71.88 	12
71.9 	17
71.92 	9
71.94 	9
71.96 	10
71.98 	9
72 	18
72.02 	10
72.04 	16
72.06 	20
72.08 	9
72.1 	7
72.12 	16
72.14 	15
72.16 	9
72.18 	8
72.2 	11
72.22 	20
72.24 	21
72.26 	8
72.28 	13
72.3 	9
72.32 	12
72.34 	11
72.36 	10
72.38 	10
72.4 	12
72.42 	11
72.44 	13
72.46 	11
72.48 	13
72.5 	6
72.52 	11
72.54 	6
72.56 	12
72.58 	5
72.6 	14
72.62 	9
72.64 	14
72.66 	15
72.68 	15
72.7 	10
72.72 	14
72.74 	12
72.76 	5
72.78 	15
72.8 	14
72.82 	10
72.84 	15
72.86 	10
72.88 	13
72.9 	13
72.92 	14
72.94 	16
72.96 	14
72.98 	6
73 	17
73.02 	15
73.04 	17
73.06 	11
73.08 	12
73.1 	10
73.12 	6
73.14 	9
73.16 	11
73.18 	11
73.2 	8
73.22 	14
73.24 	14
73.26 	10
73.28 	5
73.3 	10
73.32 	7
73.34 	9
73.36 	7
73.38 	16
73.4 	9
73.42 	7
73.44 	6
73.46 	10
73.48 	15
73.5 	7
73.52 	8
73.54 	13
73.56 	15
73.58 	12
73.6 	12
73.62 	8
73.64 	9
73.66 	8
73.68 	11
73.7 	17
73.72 	10
73.74 	13
73.76 	10
73.78 	8
73.8 	16
73.82 	8
73.84 	14
73.86 	12
73.88 	6
73.9 	14
73.92 	12
73.94 	11
73.96 	10
73.98 	8
74 	10
74.02 	12
74.04 	10
74.06 	16
74.08 	14
74.1 	8
74.12 	14
74.14 	14
74.16 	12
74.18 	15
74.2 	8
74.22 	8
74.24 	12
74.26 	11
74.28 	13
74.3 	13
74.32 	12
74.34 	13
74.36 	19
74.38 	11
74.4 	16
74.42 	8
74.44 	16
74.46 	13
74.48 	9
74.5 	8
74.52 	12
74.54 	17
74.56 	13
74.58 	17
74.6 	6
74.62 	16
74.64 	15
74.66 	14
74.68 	10
74.7 	19
74.72 	12
74.74 	7
74.76 	13
74.78 	17
74.8 	11
74.82 	16
74.84 	10
74.86 	12
74.88 	11
74.9 	14
74.92 	9
74.94 	15
74.96 	15
74.98 	17
75 	20
75.02 	14
75.04 	13
75.06 	13
75.08 	12
75.1 	10
75.12 	16
75.14 	12
75.16 	16
75.18 	17
75.2 	13
75.22 	9
75.24 	12
75.26 	19
75.28 	16
75.3 	8
75.32 	15
75.34 	9
75.36 	7
75.38 	12
75.4 	15
75.42 	15
75.44 	16
75.46 	16
75.48 	11
75.5 	13
75.52 	12
75.54 	16
75.56 	12
75.58 	10
75.6 	20
75.62 	19
75.64 	18
75.66 	13
75.68 	14
75.7 	11
75.72 	18
75.74 	9
75.76 	9
75.78 	10
75.8 	11
75.82 	12
75.84 	17
75.86 	11
75.88 	11
75.9 	9
75.92 	15
75.94 	15
75.96 	14
75.98 	12
76 	9
76.02 	14
76.04 	9
76.06 	18
76.08 	16
76.1 	13
76.12 	17
76.14 	16
76.16 	13
76.18 	11
76.2 	14
76.22 	12
76.24 	16
76.26 	10
76.28 	14
76.3 	15
76.32 	13
76.34 	17
76.36 	20
76.38 	14
76.4 	19
76.42 	17
76.44 	26
76.46 	19
76.48 	20
76.5 	22
76.52 	19
76.54 	33
76.56 	28
76.58 	22
76.6 	21
76.62 	32
76.64 	17
76.66 	28
76.68 	37
76.7 	22
76.72 	18
76.74 	26
76.76 	32
76.78 	27
76.8 	33
76.82 	29
76.84 	31
76.86 	23
76.88 	29
76.9 	33
76.92 	26
76.93999 	30
76.96 	37
76.98 	28
77 	29
77.02 	37
77.04 	20
77.06 	21
77.08 	28
77.1 	24
77.12 	32
77.14 	24
77.16 	26
77.18 	24
77.2 	25
77.22 	28
77.24 	30
77.26 	21
77.28 	19
77.3 	24
77.32 	23
77.34 	25
77.36 	19
77.38 	19
77.4 	20
77.42 	23
77.43999 	17
77.46 	25
77.48 	21
77.5 	26
77.52 	18
77.54 	19
77.56 	29
77.58 	33
77.6 	27
77.62 	31
77.64 	21
77.66 	18
77.68 	28
77.7 	35
77.72 	17
77.74 	29
77.76 	28
77.78 	30
77.8 	28
77.82 	33
77.84 	49
77.86 	30
77.88 	59
77.9 	45
77.92 	53
77.93999 	66
77.96 	80
77.98 	80
78 	129
78.02 	162
78.04 	182
78.06 	244
78.08 	213
78.1 	221
78.12 	176
78.14 	188
78.16 	139
78.18 	106
78.2 	110
78.22 	91
78.24 	125
78.26 	106
78.28 	104
78.3 	130
78.32 	119
78.34 	131
78.36 	98
78.38 	92
78.4 	70
78.42 	42
78.43999 	40
78.46 	53
78.48 	43
78.5 	31
78.52 	38
78.54 	27
78.56 	30
78.58 	26
78.6 	24
78.62 	12
78.64 	23
78.66 	25
78.68 	19
78.7 	18
78.72 	20
78.74 	20
78.76 	16
78.78 	13
78.8 	16
78.82 	13
78.84 	13
78.86 	18
78.88 	10
78.9 	9
78.92 	19
78.93999 	13
78.96 	12
78.98 	13
79 	17
79.02 	10
79.04 	14
79.06 	13
79.08 	9
79.1 	14
79.12 	11
79.14 	12
79.16 	9
79.18 	12
79.2 	12
79.22 	16
79.24 	9
79.26 	20
79.28 	12
79.3 	9
79.32 	6
79.34 	11
79.36 	14
79.38 	5
79.4 	18
79.42 	8
79.43999 	15
79.46 	17
79.48 	12
79.5 	15
79.52 	15
79.54 	23
79.56 	9
79.58 	14
79.6 	16
79.62 	9
79.64 	16
79.66 	10
79.68 	7
79.7 	12
79.72 	12
79.74 	11
79.76 	13
79.78 	8
79.8 	16
79.82 	13
79.84 	10
79.86 	24
79.88 	10
79.9 	8
79.92 	9
79.93999 	10
79.96 	8
79.98 	8
80 	10
80.02 	14
80.04 	13
80.06 	7
80.08 	21
80.1 	6
80.12 	10
80.14 	8
80.16 	14
80.18 	18
80.2 	10
80.22 	14
80.24 	9
80.26 	15
80.28 	10
80.3 	8
80.32 	13
80.34 	13
80.36 	18
80.38 	12
80.4 	11
80.42 	13
80.43999 	5
80.46 	12
80.48 	18
80.5 	12
80.52 	11
80.54 	9
80.56 	8
80.58 	11
80.6 	14
80.62 	10
80.64 	9
80.66 	9
80.68 	8
80.7 	9
80.72 	11
80.74 	15
80.76 	14
80.78 	9
80.8 	7
80.82 	13
80.84 	7
80.86 	9
80.88 	8
80.9 	4
80.92 	11
80.93999 	8
80.96 	15
80.98 	10
81 	6
81.02 	15
81.04 	9
81.06 	18
81.08 	16
81.1 	6
81.12 	4
81.14 	8
81.16 	9
81.18 	12
81.2 	12
81.22 	10
81.24 	16
81.26 	16
81.28 	11
81.3 	11
81.32 	12
81.34 	18
81.36 	10
81.38 	14
81.4 	12
81.42 	18
81.43999 	11
81.46 	9
81.48 	10
81.5 	9
81.52 	13
81.54 	11
81.56 	7
81.58 	5
81.6 	16
81.62 	10
81.64 	10
81.66 	12
81.68 	13
81.7 	10
81.72 	14
81.74 	9
81.76 	12
81.78 	8
81.8 	11
81.82 	12
81.84 	6
81.86 	13
81.88 	14
81.9 	13
81.92 	16
81.93999 	10
81.96 	8
81.98 	18
82 	16
82.02 	16
82.04 	13
82.06 	21
82.08 	9
82.1 	16
82.12 	26
82.14 	30
82.16 	28
82.18 	36
82.2 	41
82.22 	42
82.24 	64
82.26 	80
82.28 	68
82.3 	82
82.32 	77
82.34 	60
82.36 	51
82.38 	41
82.4 	38
82.42 	35
82.43999 	38
82.46 	39
82.48 	34
82.5 	45
82.52 	52
82.54 	47
82.56 	47
82.58 	32
82.6 	38
82.62 	34
82.64 	17
82.66 	26
82.68 	32
82.7 	17
82.72 	18
82.74 	10
82.76 	14
82.78 	16
82.8 	17
82.82 	23
82.84 	12
82.86 	16
82.88 	14
82.9 	8
82.92 	14
82.93999 	9
82.96 	25
82.98 	19
83 	9
83.02 	18
83.04 	10
83.06 	15
83.08 	16
83.1 	9
83.12 	11
83.14 	10
83.16 	11
83.18 	8
83.2 	10
83.22 	4
83.24 	12
83.26 	15
83.28 	10
83.3 	9
83.32 	10
83.34 	11
83.36 	14
83.38 	11
83.4 	10
83.42 	11
83.43999 	9
83.46 	11
83.48 	6
83.5 	10
83.52 	6
83.54 	11
83.56 	10
83.58 	14
83.6 	12
83.62 	11
83.64 	9
83.66 	8
83.68 	10
83.7 	16
83.72 	11
83.74 	14
83.76 	11
83.78 	9
83.8 	4
83.82 	10
83.84 	11
83.86 	11
83.88 	4
83.9 	6
83.92 	11
83.93999 	8
83.96 	10
83.98 	8
84 	11
84.02 	19
84.04 	6
84.06 	4
84.08 	17
84.1 	13
84.12 	13
84.14 	8
84.16 	11
84.18 	9
84.2 	11
84.22 	14
84.24 	6
84.26 	14
84.28 	7
84.3 	11
84.32 	14
84.34 	13
84.36 	8
84.38 	9
84.4 	7
84.42 	10
84.43999 	8
84.46 	18
84.48 	11
84.5 	7
84.52 	3
84.54 	5
84.56 	6
84.58 	12
84.6 	9
84.62 	16
84.64 	7
84.66 	9
84.68 	9
84.7 	8
84.72 	11
84.74 	15
84.76 	11
84.78 	7
84.8 	13
84.82 	11
84.84 	6
84.86 	8
84.88 	7
84.9 	12
84.92 	8
84.93999 	12
84.96 	16
84.98 	4
85 	12
85.02 	14
85.04 	9
85.06 	7
85.08 	12
85.1 	6
85.12 	12
85.14 	14
85.16 	11
85.18 	9
85.2 	13
85.22 	8
85.24 	9
85.26 	6
85.28 	6
85.3 	8
85.32 	7
85.34 	5
85.36 	17
85.38 	11
85.4 	7
85.42 	10
85.43999 	6
85.46 	8
85.48 	5
85.5 	13
85.52 	12
85.54 	13
85.56 	9
85.58 	4
85.6 	8
85.62 	12
85.64 	12
85.66 	8
85.68 	9
85.7 	11
85.72 	11
85.74 	12
85.76 	9
85.78 	11
85.8 	10
85.82 	14
85.84 	12
85.86 	9
85.88 	10
85.9 	10
85.92 	13
85.93999 	15
85.96 	11
85.98 	5
86 	10
86.02 	12
86.04 	14
86.06 	6
86.08 	14
86.1 	12
86.12 	11
86.14 	13
86.16 	14
86.18 	5
86.2 	11
86.22 	12
86.24 	11
86.26 	4
86.28 	10
86.3 	13
86.32 	17
86.34 	9
86.36 	11
86.38 	8
86.4 	12
86.42 	5
86.43999 	12
86.46 	10
86.48 	15
86.5 	9
86.52 	6
86.54 	9
86.56 	9
86.58 	12
86.6 	8
86.62 	17
86.64 	8
86.66 	11
86.68 	9
86.7 	12
86.72 	10
86.74 	9
86.76 	12
86.78 	4
86.8 	7
86.82 	9
86.84 	12
86.86 	3
86.88 	22
86.9 	9
86.92 	5
86.93999 	12
86.96 	10
86.98 	7
87 	12
87.02 	6
87.04 	18
87.06 	8
87.08 	10
87.1 	10
87.12 	18
87.14 	9
87.16 	10
87.18 	10
87.2 	10
87.22 	5
87.24 	4
87.26 	10
87.28 	10
87.3 	10
87.32 	7
87.34 	11
87.36 	10
87.38 	7
87.4 	10
87.42 	7
87.43999 	11
87.46 	11
87.48 	9
87.5 	15
87.52 	12
87.54 	10
87.56 	13
87.58 	8
87.6 	13
87.62 	15
87.64 	10
87.66 	6
87.68 	15
87.7 	13
87.72 	12
87.74 	11
87.76 	10
87.78 	10
87.8 	9
87.82 	13
87.84 	16
87.86 	9
87.88 	5
87.9 	12
87.92 	8
87.93999 	9
87.96 	13
87.98 	11
88 	10
88.02 	11
88.04 	9
88.06 	13
88.08 	12
88.1 	5
88.12 	11
88.14 	8
88.16 	11
88.18 	6
88.2 	9
88.22 	13
88.24 	11
88.26 	12
88.28 	9
88.3 	5
88.32 	8
88.34 	9
88.36 	10
88.38 	11
88.4 	9
88.42 	7
88.43999 	3
88.46 	8
88.48 	6
88.5 	6
88.52 	4
88.54 	10
88.56 	8
88.58 	14
88.6 	12
88.62 	4
88.64 	8
88.66 	3
88.68 	16
88.7 	10
88.72 	3
88.74 	12
88.76 	8
88.78 	15
88.8 	5
88.82 	7
88.84 	3
88.86 	13
88.88 	11
88.9 	9
88.92 	10
88.93999 	8
88.96 	20
88.98 	7
89 	7
89.02 	8
89.04 	9
89.06 	12
89.08 	4
89.1 	15
89.12 	11
89.14 	7
89.16 	9
89.18 	10
89.2 	6
89.22 	7
89.24 	8
89.26 	11
89.28 	6
89.3 	13
89.32 	10
89.34 	13
89.36 	10
89.38 	13
89.4 	8
89.42 	14
89.43999 	11
89.46 	10
89.48 	14
89.5 	10
89.52 	12
89.54 	7
89.56 	12
89.58 	5
89.6 	1
89.62 	12
89.64 	12
89.66 	8
89.68 	11
89.7 	11
89.72 	7
89.74 	11
89.76 	11
89.78 	10
89.8 	14
89.82 	11
89.84 	11
89.86 	8
89.88 	10
89.9 	10
89.92 	3
89.93999 	8
89.96 	11
89.98 	7
90 	5
